date,equity
2018-10-16,1.0
2018-10-17,1.0
2018-10-18,1.0
2018-10-19,1.0
2018-10-22,1.0
2018-10-23,1.0
2018-10-24,1.0
2018-10-25,1.0
2018-10-26,1.0
2018-10-29,1.0
2018-10-30,1.0
2018-10-31,1.0
2018-11-01,1.0
2018-11-02,1.0
2018-11-05,1.0
2018-11-06,1.0
2018-11-07,1.0
2018-11-08,1.0
2018-11-09,1.0
2018-11-12,1.0
2018-11-13,0.9999166666666667
2018-11-14,0.9997001348500874
2018-11-15,1.0010139141391263
2018-11-16,1.0018349547133558
2018-11-19,1.0036654391741984
2018-11-20,0.9945252810295302
2018-11-21,0.9954147331793144
2018-11-22,0.9951463299415284
2018-11-23,0.985316355442657
2018-11-26,0.9863437407964311
2018-11-27,0.9860233741464383
2018-11-28,0.9891094272812334
2018-11-29,0.9863764414079265
2018-11-30,0.9869812504370253
2018-12-03,0.9918510490225192
2018-12-04,0.9913503949931143
2018-12-05,0.995248600323574
2018-12-06,0.9837450361446601
2018-12-07,0.9835598707272065
2018-12-10,0.9809651404044909
2018-12-11,0.981880797085298
2018-12-12,0.9827428542024602
2018-12-13,0.9890420419170695
2018-12-14,0.9819581360855376
2018-12-17,0.9809056638094733
2018-12-18,0.978630310414696
2018-12-19,0.9760653849793954
2018-12-20,0.9729969982438186
2018-12-21,0.9719837587228857
2018-12-24,0.9713631512731025
2018-12-25,0.9714344784735373
2018-12-26,0.9717018647322586
2018-12-27,0.9721587473819252
2018-12-28,0.9728479761093876
2019-01-02,0.9713377495045745
2019-01-03,0.9712447060920859
2019-01-04,0.9713490599855356
2019-01-07,0.971827017836973
2019-01-08,0.9717308091368718
2019-01-09,0.9717487251970164
2019-01-10,0.9702959654075534
2019-01-11,0.9702604594400462
2019-01-14,0.9700578761630662
2019-01-15,0.9719852647375942
2019-01-16,0.9711231550523018
2019-01-17,0.969539353111301
2019-01-18,0.9768916751337776
2019-01-21,0.9786562854413035
2019-01-22,0.9704552842541001
2019-01-23,0.9734075539840102
2019-01-24,0.977677017216989
2019-01-25,0.9815518181541696
2019-01-28,0.9818687630283814
2019-01-29,0.9870453313737904
2019-01-30,0.9838864706728723
2019-01-31,0.9914229630564041
2019-02-01,0.99818176630356
2019-02-11,1.0093832834534724
2019-02-12,1.0135570234404565
2019-02-13,1.0238700033513992
2019-02-14,1.027592768649999
2019-02-15,1.0135604394230664
2019-02-18,1.0395042361114415
2019-02-19,1.036618904305909
2019-02-20,1.0444425526891525
2019-02-21,1.0466906223455907
2019-02-22,1.0642823136235848
2019-02-25,1.105517093852504
2019-02-26,1.0985230526035767
2019-02-27,1.092064089501648
2019-02-28,1.0941189937740055
2019-03-01,1.1140804994960367
2019-03-04,1.1281945754094216
2019-03-05,1.1363445766542277
2019-03-06,1.1395063182786367
2019-03-07,1.1204669544765942
2019-03-08,1.0886840156896924
2019-03-11,1.1059195234616317
2019-03-12,1.1143239077806506
2019-03-13,1.1027195113736246
2019-03-14,1.0982059747349089
2019-03-15,1.1089944525919928
2019-03-18,1.1291169485373622
2019-03-19,1.1247928264088067
2019-03-20,1.1225545645582096
2019-03-21,1.121152991326352
2019-03-22,1.1229286274809067
2019-03-25,1.1105216655156516
2019-03-26,1.1057507643012285
2019-03-27,1.1131093856522876
2019-03-28,1.1134262684148888
2019-03-29,1.1311272768473495
2019-04-01,1.1461548020702523
2019-04-02,1.1429218179250324
2019-04-03,1.1530898797859375
2019-04-04,1.1618339041565389
2019-04-08,1.1583222333722527
2019-04-09,1.1620714044256464
2019-04-10,1.1656576689391906
2019-04-11,1.1435188123491196
2019-04-12,1.14288577266793
2019-04-15,1.1409421279207568
2019-04-16,1.1583405303617567
2019-04-17,1.1624749749367886
2019-04-18,1.159216411074655
2019-04-19,1.1665405476072581
2019-04-22,1.154750481992664
2019-04-23,1.152947003865573
2019-04-24,1.1536895386576511
2019-04-25,1.145087050074759
2019-04-26,1.1379215164908931
2019-04-29,1.1409925666057261
2019-04-30,1.140704785486319
2019-05-06,1.1293840934067418
2019-05-07,1.1314287459951349
2019-05-08,1.1286494871714747
2019-05-09,1.1295585915153292
2019-05-10,1.1342518736502492
2019-05-13,1.1337097186308642
2019-05-14,1.1334485391868303
2019-05-15,1.135928396122257
2019-05-16,1.135985856924523
2019-05-17,1.1337328330784062
2019-05-20,1.129421815173734
2019-05-21,1.1319512283124593
2019-05-22,1.1312280630823928
2019-05-23,1.127661025779728
2019-05-24,1.1262333392957042
2019-05-27,1.1281470261481106
2019-05-28,1.1302083433694692
2019-05-29,1.1295035012917245
2019-05-30,1.1298514940612918
2019-05-31,1.1304331150331859
2019-06-03,1.1298815503061574
2019-06-04,1.1286859363722954
2019-06-05,1.1286811275009918
2019-06-06,1.122137112526222
2019-06-10,1.1258160399184738
2019-06-11,1.1317870642617731
2019-06-12,1.1282147516063663
2019-06-13,1.1263309581725334
2019-06-14,1.122381775879565
2019-06-17,1.1219464992968777
2019-06-18,1.1242096564501656
2019-06-19,1.129348444873464
2019-06-20,1.1417125053598312
2019-06-21,1.1416253495163606
2019-06-24,1.145321403455164
2019-06-25,1.1395677251703193
2019-06-26,1.1389919023576107
2019-06-27,1.1514997609876134
2019-06-28,1.150268450637209
2019-07-01,1.17039650180724
2019-07-02,1.1713070101441623
2019-07-03,1.1617956020553006
2019-07-04,1.15824276417657
2019-07-05,1.1634468186870461
2019-07-08,1.1444540171068107
2019-07-09,1.1448159995806968
2019-07-10,1.1470959785009154
2019-07-11,1.1451272749807797
2019-07-12,1.1480336186527185
2019-07-15,1.151109452441
2019-07-16,1.1473190527997448
2019-07-17,1.1491290378325743
2019-07-18,1.1451412532667138
2019-07-19,1.149626392156831
2019-07-22,1.1496870339603806
2019-07-23,1.1526588381306397
2019-07-24,1.154290243285803
2019-07-25,1.1572481609694256
2019-07-26,1.1619074581510636
2019-07-29,1.1614033976929579
2019-07-30,1.1616385750092642
2019-07-31,1.1576686326606547
2019-08-01,1.1568934541953588
2019-08-02,1.1514111215359681
2019-08-05,1.1435341940314883
2019-08-06,1.1403258860626408
2019-08-07,1.1383865708105088
2019-08-08,1.1399800154455764
2019-08-09,1.1379205289141519
2019-08-12,1.1389613127266165
2019-08-13,1.1390506981942132
2019-08-14,1.1396635403065687
2019-08-15,1.1411473216410135
2019-08-16,1.1411784987140585
2019-08-19,1.1458294296966973
2019-08-20,1.1480134766222196
2019-08-21,1.1479444873237685
2019-08-22,1.1491570911070355
2019-08-23,1.1527120099437091
2019-08-26,1.1498688940677124
2019-08-27,1.1568988229751285
2019-08-28,1.1565907670014097
2019-08-29,1.1557725617556613
2019-08-30,1.1573901821673793
2019-09-02,1.1661382245252234
2019-09-03,1.1673209783428808
2019-09-04,1.1661282622552585
2019-09-05,1.1689864608608904
2019-09-06,1.1714451225278693
2019-09-09,1.1758642013753917
2019-09-10,1.1738888531443117
2019-09-11,1.1643593921763555
2019-09-12,1.1674233117959305
2019-09-16,1.1633355927580538
2019-09-17,1.1549290038293238
2019-09-18,1.1552831861592683
2019-09-19,1.1574678410944954
2019-09-20,1.1594426175638692
2019-09-23,1.1535426400511533
2019-09-24,1.1538208256755813
2019-09-25,1.1517756056328095
2019-09-26,1.1497099633659493
2019-09-27,1.1493768083638665
2019-09-30,1.1473385110679837
2019-10-08,1.148181701934055
2019-10-09,1.1468623854382196
2019-10-10,1.1492549736211202
2019-10-11,1.1516339408942238
2019-10-14,1.154301802719149
2019-10-15,1.1542794109244137
2019-10-16,1.1528523483664923
2019-10-17,1.152257093220594
2019-10-18,1.1484787260251565
2019-10-21,1.1497668205827611
2019-10-22,1.1511336179973395
2019-10-23,1.1476154429722967
2019-10-24,1.147177219380897
2019-10-25,1.153082701647174
2019-10-28,1.1535129022392883
2019-10-29,1.1542527167831635
2019-10-30,1.1541830816113199
2019-10-31,1.1521022996390047
2019-11-01,1.1580179386360638
2019-11-04,1.161517877779342
2019-11-05,1.1655600382536562
2019-11-06,1.1629232360142052
2019-11-07,1.1637045644060033
2019-11-08,1.1629230743732255
2019-11-11,1.1530648830885997
2019-11-12,1.1533367663376788
2019-11-13,1.1564632236194443
2019-11-14,1.156396255990001
2019-11-15,1.1528180938965835
2019-11-18,1.1531278817266042
2019-11-19,1.1578265974836721
2019-11-20,1.1540032993164997
2019-11-21,1.1523132172223591
2019-11-22,1.1479448223717146
2019-11-25,1.1507099878546547
2019-11-26,1.1530004849805382
2019-11-27,1.151077918150966
2019-11-28,1.1504642182592757
2019-11-29,1.1474410208264323
2019-12-02,1.150790753687232
2019-12-03,1.1529566525207127
2019-12-04,1.1517303556233833
2019-12-05,1.1541157019902346
2019-12-06,1.1566847291631814
2019-12-09,1.1583212164449672
2019-12-10,1.1600483874084606
2019-12-11,1.1600424358146226
2019-12-12,1.1577828101240792
2019-12-13,1.160794449824765
2019-12-16,1.1645522182493244
2019-12-17,1.1702902898637677
2019-12-18,1.1670213430097913
2019-12-19,1.168974242766641
2019-12-20,1.1664391075850415
2019-12-23,1.1586518634607739
2019-12-24,1.163098006914709
2019-12-25,1.165043981739645
2019-12-26,1.1710263560995244
2019-12-27,1.1703953062157164
2019-12-30,1.180168594421653
2019-12-31,1.183704437921294
2020-01-02,1.1925616016960552
2020-01-03,1.1942180665283055
2020-01-06,1.189425297334349
2020-01-07,1.1928119828324972
2020-01-08,1.1832665135252423
2020-01-09,1.1941412349741192
2020-01-10,1.1902046806739348
2020-01-13,1.197046230973165
2020-01-14,1.19535445849967
2020-01-15,1.191368456482113
2020-01-16,1.1900714074965026
2020-01-17,1.1909204490850098
2020-01-20,1.1958802331440421
2020-01-21,1.187061874786152
2020-01-22,1.1931239486138587
2020-01-23,1.182232800705858
2020-02-03,1.1680529850302608
2020-02-04,1.1747142604536882
2020-02-05,1.1824533604827738
2020-02-06,1.185401062820188
2020-02-07,1.182745292513558
2020-02-10,1.1843605898357281
2020-02-11,1.1837751261450382
2020-02-12,1.1842354139016593
2020-02-13,1.1839892711285858
2020-02-14,1.184264878949365
2020-02-17,1.1918852945928262
2020-02-18,1.1930245674843694
2020-02-19,1.1929333849643422
2020-02-20,1.1999978231988078
2020-02-21,1.202475553249849
2020-02-24,1.2074431826887075
2020-02-25,1.2154787223613128
2020-02-26,1.203161757202882
2020-02-27,1.2029493199294852
2020-02-28,1.1902738789551512
2020-03-02,1.2071454725980504
2020-03-03,1.20907649662183
2020-03-04,1.2134752338237706
2020-03-05,1.2176546935621413
2020-03-06,1.204717357252381
2020-03-09,1.188084494003651
2020-03-10,1.198205580992889
2020-03-11,1.1930967359148825
2020-03-12,1.1830481466014224
2020-03-13,1.1793403269194884
2020-03-16,1.1641009870261778
2020-03-17,1.164303827305431
2020-03-18,1.1647520200973525
2020-03-19,1.1636400504363005
2020-03-20,1.1622581545245367
2020-03-23,1.1582497305337738
2020-03-24,1.1594382088850608
2020-03-25,1.1608204425738997
2020-03-26,1.1634489397092918
2020-03-27,1.16212209768329
2020-03-30,1.1628332274015631
2020-03-31,1.1636412548672124
2020-04-01,1.162625476698513
2020-04-02,1.162090953877723
2020-04-03,1.162826690000968
2020-04-07,1.1659144430098103
2020-04-08,1.1638735366543438
2020-04-09,1.1632294184290377
2020-04-10,1.1619938126554892
2020-04-13,1.1625812736472825
2020-04-14,1.164236910393272
2020-04-15,1.1609484235739813
2020-04-16,1.1617457032787248
2020-04-17,1.1661017656953334
2020-04-20,1.170112698857598
2020-04-21,1.1662482226804214
2020-04-22,1.1708964542755471
2020-04-23,1.171379983740372
2020-04-24,1.1678929770574744
2020-04-27,1.1685314663992428
2020-04-28,1.178250116986513
2020-04-29,1.1769439750259556
2020-04-30,1.1815042955916004
2020-05-06,1.1809710745893462
2020-05-07,1.1779947258387788
2020-05-08,1.1819030830411006
2020-05-11,1.179881817587825
2020-05-12,1.1824335078845525
2020-05-13,1.1831139446085048
2020-05-14,1.1742685972179057
2020-05-15,1.1731138067055051
2020-05-18,1.1751568333841833
2020-05-19,1.1798322042824976
2020-05-20,1.1759004019474066
2020-05-21,1.1714022108587723
2020-05-22,1.163017351963427
2020-05-25,1.1663636859810762
2020-05-26,1.1690153283952094
2020-05-27,1.1675017088093793
2020-05-28,1.1657954384161828
2020-05-29,1.1706992927622926
2020-06-01,1.1761462213224945
2020-06-02,1.1742144326943682
2020-06-03,1.1733630052863275
2020-06-04,1.1721581959313196
2020-06-05,1.1768963532805803
2020-06-08,1.1800673425591988
2020-06-09,1.1847889134893426
2020-06-10,1.1822243742661558
2020-06-11,1.179253960511563
2020-06-12,1.179837653194178
2020-06-15,1.171898397613023
2020-06-16,1.1778029100137388
2020-06-17,1.1784425411743251
2020-06-18,1.1817007239743906
2020-06-19,1.1873939749586002
2020-06-22,1.1882520374727152
2020-06-23,1.1940952080538452
2020-06-24,1.1975026504522341
2020-06-29,1.1994901258642812
2020-06-30,1.2101991575177724
2020-07-01,1.2202962859762703
2020-07-02,1.2322766020132012
2020-07-03,1.2433298275054467
2020-07-06,1.2990888329899057
2020-07-07,1.306258558920797
2020-07-08,1.3219087002672871
2020-07-09,1.3412955063972285
2020-07-10,1.3216946793586724
2020-07-13,1.352211985196166
2020-07-14,1.347391118852922
2020-07-15,1.338637105844403
2020-07-16,1.2825790534496337
2020-07-17,1.292921930071892
2020-07-20,1.3208018112452333
2020-07-21,1.3239326006405907
2020-07-22,1.3285133454860245
2020-07-23,1.3378894763670255
2020-07-24,1.3075135998422371
2020-07-27,1.3149690867961603
2020-07-28,1.3164142683989921
2020-07-29,1.327679043381051
2020-07-30,1.3317389064918495
2020-07-31,1.3368271222202956
2020-08-03,1.3457105342786368
2020-08-04,1.3423163024938762
2020-08-05,1.3493264110724426
2020-08-06,1.3479368442275603
2020-08-07,1.3471849336066921
2020-08-10,1.3433980963011172
2020-08-11,1.3342480962817707
2020-08-12,1.3236652431797515
2020-08-13,1.3265745486185776
2020-08-14,1.3268357975526666
2020-08-17,1.3329398342763734
2020-08-18,1.333091419342183
2020-08-19,1.330301204939919
2020-08-20,1.3208836382763571
2020-08-21,1.3226463258855516
2020-08-24,1.3254814689148664
2020-08-25,1.3248832346446031
2020-08-26,1.3228926349936472
2020-08-27,1.3240844486897774
2020-08-28,1.3317541354251998
2020-08-31,1.3303741631176254
2020-09-01,1.3332035266854527
2020-09-02,1.3334258248856352
2020-09-03,1.334721908658274
2020-09-04,1.3296846704029026
2020-09-07,1.3196710911506622
2020-09-08,1.3212447178112658
2020-09-09,1.3146277677084792
2020-09-10,1.3180530982939715
2020-09-11,1.3227811788286237
2020-09-14,1.3263461278253625
2020-09-15,1.331266760671932
2020-09-16,1.3336383539388714
2020-09-17,1.3338066497265133
2020-09-18,1.3375015486177018
2020-09-21,1.3310257772446727
2020-09-22,1.3227906290378695
2020-09-23,1.3245737646495521
2020-09-24,1.3151843252865971
2020-09-25,1.313891830857213
2020-09-28,1.3169389502983389
2020-09-29,1.3166332556542888
2020-09-30,1.3190985942273026
2020-10-09,1.3258389443064738
2020-10-12,1.3369441015724297
2020-10-13,1.3427793131912424
2020-10-14,1.3413628083469396
2020-10-15,1.3376718625445183
2020-10-16,1.3329971628630777
2020-10-19,1.3260563498959441
2020-10-20,1.3362201167911707
2020-10-21,1.3318250953211501
2020-10-22,1.3308771917281836
2020-10-23,1.320202982223063
2020-10-26,1.321699966702221
2020-10-27,1.322020394184377
2020-10-28,1.327196817865387
2020-10-29,1.3296879146402434
2020-10-30,1.3248204266136587
2020-11-02,1.3373652721700628
2020-11-03,1.340427114172608
2020-11-04,1.3468857118676443
2020-11-05,1.3555167175919336
2020-11-06,1.3592473775227245
2020-11-09,1.3682175346631538
2020-11-10,1.3635160603856684
2020-11-11,1.3532212504833316
2020-11-12,1.3553701963664093
2020-11-13,1.3469171078422189
2020-11-16,1.3569273871649559
2020-11-17,1.3545740078550221
2020-11-18,1.3546246823494534
2020-11-19,1.3572132158671555
2020-11-20,1.36530688796155
2020-11-23,1.3722808896888057
2020-11-24,1.3688104846566749
2020-11-25,1.3590476092669055
2020-11-26,1.3658642694209189
2020-11-27,1.3740884689112867
2020-11-30,1.3720722674558332
2020-12-01,1.3851578042036665
2020-12-02,1.3864463341333706
2020-12-03,1.3773771513001845
2020-12-04,1.3770968904537213
2020-12-07,1.3679264002882887
2020-12-08,1.3645321581502117
2020-12-09,1.3570892847590021
2020-12-10,1.356535867893795
2020-12-11,1.3543581828900755
2020-12-14,1.3566280878335955
2020-12-15,1.3586810614217604
2020-12-16,1.3609859855885809
2020-12-17,1.3667606615130676
2020-12-18,1.3666012635156564
2020-12-21,1.3768130709783726
2020-12-22,1.374180033514246
2020-12-23,1.3817047753158243
2020-12-24,1.3796876080315517
2020-12-25,1.3868861541659483
2020-12-28,1.391669500436041
2020-12-29,1.3821973276396378
2020-12-30,1.399072442743309
2020-12-31,1.4125077737858005
2021-01-04,1.4322223945608732
2021-01-05,1.452519667453869
2021-01-06,1.4574049775013218
2021-01-07,1.4838892795645982
2021-01-08,1.4756382379381037
2021-01-11,1.4659043970212027
2021-01-12,1.4947521016143654
2021-01-13,1.491653963259513
2021-01-14,1.4633245620498
2021-01-15,1.4570002905351833
2021-01-18,1.4667420159054312
2021-01-19,1.451276021555574
2021-01-20,1.4537321307423567
2021-01-21,1.4610629223839162
2021-01-22,1.4540187196027647
2021-01-25,1.4580481195117418
2021-01-26,1.4464507784518643
2021-01-27,1.4561325495351112
2021-01-28,1.4401024301997591
2021-01-29,1.4365168342359238
2021-02-01,1.4401091434722293
2021-02-02,1.4419525192264835
2021-02-03,1.4420783894919724
2021-02-04,1.4405144011426734
2021-02-05,1.442164529429358
2021-02-08,1.4536146621746004
2021-02-09,1.4617675467807978
2021-02-10,1.4767573218567611
2021-02-18,1.4724751177340358
2021-02-19,1.4707905772156251
2021-02-22,1.4529444739887818
2021-02-23,1.451585774257782
2021-02-24,1.4357092275782648
2021-02-25,1.4390972013689547
2021-02-26,1.4226504799376534
2021-03-01,1.429821597110026
2021-03-02,1.4246643833507011
2021-03-03,1.4335575975126649
2021-03-04,1.4259185914032058
2021-03-05,1.4168074866675382
2021-03-08,1.415013937883934
2021-03-09,1.4147010904223662
2021-03-10,1.4123173561602
2021-03-11,1.4186244177334704
2021-03-12,1.4269476542021409
2021-03-15,1.427592205799076
2021-03-16,1.4295115871000734
2021-03-17,1.4240220491942133
2021-03-18,1.4244145319551282
2021-03-19,1.4193011690366202
2021-03-22,1.4241092806395874
2021-03-23,1.417477496089147
2021-03-24,1.4124807110173676
2021-03-25,1.4113509937209716
2021-03-26,1.4132724200402405
2021-03-29,1.415069142566525
2021-03-30,1.414741867932657
2021-03-31,1.415772883359813
2021-04-01,1.4159647906248116
2021-04-02,1.4167273701868366
2021-04-06,1.4143910256698697
2021-04-07,1.411631747415504
2021-04-08,1.4119494631047242
2021-04-09,1.4039281331965774
2021-04-12,1.4026141921032287
2021-04-13,1.399778977954968
2021-04-14,1.4015573329307824
2021-04-15,1.4005977588485041
2021-04-16,1.4026052267977573
2021-04-19,1.4124732963918678
2021-04-20,1.412825415425492
2021-04-21,1.4155913158346178
2021-04-22,1.4172161224980724
2021-04-23,1.4193038306905055
2021-04-26,1.4148020902818854
2021-04-27,1.41571455934366
2021-04-28,1.4241120788255957
2021-04-29,1.4270133526437216
2021-04-30,1.4254099317690645
2021-05-06,1.4183831032121335
2021-05-07,1.4089806996400556
2021-05-10,1.41347246762267
2021-05-11,1.4125339666665369
2021-05-12,1.4150052742250678
2021-05-13,1.4096962561527582
2021-05-14,1.4148550488827791
2021-05-17,1.4206433422520561
2021-05-18,1.4194314268459705
2021-05-19,1.417847494975498
2021-05-20,1.4151167677545546
2021-05-21,1.4108732517543061
2021-05-24,1.4147327241060599
2021-05-25,1.4288191169170812
2021-05-26,1.4288315456722849
2021-05-27,1.429264458257464
2021-05-28,1.432708965035343
2021-05-31,1.4367379175023365
2021-06-01,1.438759926419641
2021-06-02,1.4307676562254399
2021-06-03,1.4266150694963213
2021-06-04,1.4301287996671843
2021-06-07,1.4289665882066733
2021-06-08,1.4273334078698168
2021-06-09,1.427874497222407
2021-06-10,1.4335389630217308
2021-06-11,1.4302600507160688
2021-06-15,1.4291888576462293
2021-06-16,1.4187277853495657
2021-06-17,1.4236268354440527
2021-06-18,1.4291688029851377
2021-06-21,1.429980155323906
2021-06-22,1.4287585547743156
2021-06-23,1.4315785153400236
2021-06-24,1.4318746902317214
2021-06-25,1.4332710474762942
2021-06-28,1.4376223707269415
2021-06-29,1.4345558116194257
2021-06-30,1.43618054616376
2021-07-01,1.4299501906943992
2021-07-02,1.4188245434825952
2021-07-05,1.4220087380050355
2021-07-06,1.4179391028965933
2021-07-07,1.4233379045395842
2021-07-08,1.4222003232203373
2021-07-09,1.4238349078027157
2021-07-12,1.4255157155353717
2021-07-13,1.4236144373899935
2021-07-14,1.4167421229336086
2021-07-15,1.417910803923516
2021-07-16,1.413494494756181
2021-07-19,1.4146728894583136
2021-07-20,1.411800483674314
2021-07-21,1.4197568470907411
2021-07-22,1.4195981664810977
2021-07-23,1.4188769271856498
2021-07-26,1.4080404431699327
2021-07-27,1.3979980175567708
2021-07-28,1.393986230598108
2021-07-29,1.4011293397969782
2021-07-30,1.4064488657711889
2021-08-02,1.4156014407803668
2021-08-03,1.4129236818017301
2021-08-04,1.421786596164888
2021-08-05,1.4238399802658683
2021-08-06,1.4208551464029249
2021-08-09,1.4211907005872786
2021-08-10,1.4228422230518156
2021-08-11,1.4174015571535514
2021-08-12,1.4159930635334057
2021-08-13,1.4127901336087594
2021-08-16,1.4126925010497045
2021-08-17,1.408535657953376
2021-08-18,1.412569274665893
2021-08-19,1.4082116220363738
2021-08-20,1.4052285558273492
2021-08-23,1.407770468976071
2021-08-24,1.4083409357523133
2021-08-25,1.4080739588356646
2021-08-26,1.4052367757807056
2021-08-27,1.4072271212546714
2021-08-30,1.4123381312360277
2021-08-31,1.4201662237528163
2021-09-01,1.422991380456942
2021-09-02,1.4332044852719066
2021-09-03,1.427837080582327
2021-09-06,1.4339518729590965
2021-09-07,1.4404206504107562
2021-09-08,1.4438476327919643
2021-09-09,1.454574091723014
2021-09-10,1.4531017780980713
2021-09-13,1.461166580641727
2021-09-14,1.4427571516114044
2021-09-15,1.436172268792806
2021-09-16,1.4326717263441757
2021-09-17,1.4343900257932023
2021-09-22,1.4466909011529576
2021-09-23,1.4504277121184683
2021-09-24,1.441604630756426
2021-09-27,1.4388397416431309
2021-09-28,1.447167707651228
2021-09-29,1.4432074022278327
2021-09-30,1.4467818933129566
2021-10-08,1.449645353284383
2021-10-11,1.4458222524376763
2021-10-12,1.4413413143170297
2021-10-13,1.4454546801873789
2021-10-14,1.4406116470123513
2021-10-15,1.4379974202282824
2021-10-18,1.426944989873706
2021-10-19,1.4282975994715572
2021-10-20,1.426690871369722
2021-10-21,1.4248523152378423
2021-10-22,1.4271123023088754
2021-10-25,1.4272664233438583
2021-10-26,1.4240084354130647
2021-10-27,1.4216984933720342
2021-10-28,1.4222005538528184
2021-10-29,1.4311991898796252
2021-11-01,1.4307634799234965
2021-11-02,1.4292044395166648
2021-11-03,1.4227923407022542
2021-11-04,1.4277235308009204
2021-11-05,1.4244661302396178
2021-11-08,1.423642305617367
2021-11-09,1.4243975702534588
2021-11-10,1.4198566514187851
2021-11-11,1.4223271006896192
2021-11-12,1.4240277535444703
2021-11-15,1.4214588675595417
2021-11-16,1.41730966753596
2021-11-17,1.4165991026644764
2021-11-18,1.4157850221598713
2021-11-19,1.4186380102974814
2021-11-22,1.4165986035444114
2021-11-23,1.4155613553750674
2021-11-24,1.4136109707145028
2021-11-25,1.41162254872512
2021-11-26,1.4100481696590055
2021-11-29,1.4126713467493348
2021-11-30,1.4112859096829804
2021-12-01,1.4120230325999226
2021-12-02,1.4123810635650862
2021-12-03,1.419623472360494
2021-12-06,1.416285705702935
2021-12-07,1.4156082824150582
2021-12-08,1.4187774859756503
2021-12-09,1.4232775336990722
2021-12-10,1.416726369217164
2021-12-13,1.424296972707021
2021-12-14,1.4182254647754204
2021-12-15,1.4168479695252132
2021-12-16,1.4243511990266777
2021-12-17,1.4168283992434978
2021-12-20,1.4108843508843778
2021-12-21,1.418038267041103
2021-12-22,1.4156620384983991
2021-12-23,1.4213684860382267
2021-12-24,1.4195233227624746
2021-12-27,1.4196690810731498
2021-12-28,1.416062777229441
2021-12-29,1.40996721082278
2021-12-30,1.4132638091136513
2021-12-31,1.4181890561215982
2022-01-04,1.422278032107741
2022-01-05,1.4199423927820676
2022-01-06,1.415664016506699
2022-01-07,1.4240248558990047
2022-01-10,1.431001661890739
2022-01-11,1.4268886423099572
2022-01-12,1.4220083941640704
2022-01-13,1.414355644717942
2022-01-14,1.4036597324852578
2022-01-17,1.4052329467860258
2022-01-18,1.4129409548259195
2022-01-19,1.4138374482599543
2022-01-20,1.4170394607832917
2022-01-21,1.4117716868761052
2022-01-24,1.4101527356570245
2022-01-25,1.4022596712294373
2022-01-26,1.402122069135346
2022-01-27,1.3995734494774508
2022-01-28,1.3960419944087277
2022-02-07,1.4059353364266958
2022-02-08,1.412248623234635
2022-02-09,1.4128321946615634
2022-02-10,1.4183840922580497
2022-02-11,1.4189778718032653
2022-02-14,1.4098865405440886
2022-02-15,1.40450727191759
2022-02-16,1.4076325624390653
2022-02-17,1.4058690568834369
2022-02-18,1.4130940846642948
2022-02-21,1.4114558965255006
2022-02-22,1.4058205969155442
2022-02-23,1.4026050233328242
2022-02-24,1.3983188057747897
2022-02-25,1.3955014608413385
2022-02-28,1.3972918206429963
2022-03-01,1.400266516747521
2022-03-02,1.4017694163063934
2022-03-03,1.4011705037534432
2022-03-04,1.3983322335416457
2022-03-07,1.3969509923242502
2022-03-08,1.3910269210028143
2022-03-09,1.3894382661297535
2022-03-10,1.3893697638577602
2022-03-11,1.3900618202317536
2022-03-14,1.3847063907612502
2022-03-15,1.372787423679383
2022-03-16,1.3759983274054022
2022-03-17,1.377045369516606
2022-03-18,1.3773902459504233
2022-03-21,1.3803122405804267
2022-03-22,1.3791540152159976
2022-03-23,1.377293408386654
2022-03-24,1.3770597053269669
2022-03-25,1.3746797261743997
2022-03-28,1.374739754456463
2022-03-29,1.3774652357960484
2022-03-30,1.3769395615734343
2022-03-31,1.3770476751248173
2022-04-01,1.378992842442216
2022-04-06,1.3809688035915517
2022-04-07,1.3764637709982102
2022-04-08,1.381745321483752
2022-04-11,1.3769656229963436
2022-04-12,1.3744089432258149
2022-04-13,1.377422947808831
2022-04-14,1.3859233626437972
2022-04-15,1.3830580385570876
2022-04-18,1.3716415939408693
2022-04-19,1.3714192501598002
2022-04-20,1.3576655999673684
2022-04-21,1.3528835669603831
2022-04-22,1.3548289249753345
2022-04-25,1.3461468794625995
2022-04-26,1.346498230679984
2022-04-27,1.349176742773109
2022-04-28,1.3486690993442365
2022-04-29,1.3536230179294226
2022-05-05,1.3511950207855894
2022-05-06,1.342313473366072
2022-05-09,1.3397523787960093
2022-05-10,1.3442051774390076
2022-05-11,1.3435466457201783
2022-05-12,1.3439431781475588
2022-05-13,1.3494459116127664
2022-05-16,1.3465589898991683
2022-05-17,1.349589070080038
2022-05-18,1.3490280196018873
2022-05-19,1.3532916677222593
2022-05-20,1.3566214580857117
2022-05-23,1.3547513326749192
2022-05-24,1.3503497545551983
2022-05-25,1.3552850204509768
2022-05-26,1.356605510929162
2022-05-27,1.3564889356612602
2022-05-30,1.356583667476723
2022-05-31,1.357867947030278
2022-06-01,1.3586349042395194
2022-06-02,1.3596522231389054
2022-06-06,1.3718411387317975
2022-06-07,1.3709362716285869
2022-06-08,1.378186258752084
2022-06-09,1.3671320258160475
2022-06-10,1.3807750295028922
2022-06-13,1.3700881700455716
2022-06-14,1.3752539990107606
2022-06-15,1.3819145444762477
2022-06-16,1.3772550331015574
2022-06-17,1.3852427827668137
2022-06-20,1.3887841870108375
2022-06-21,1.3880485092205193
2022-06-22,1.3794090268433876
2022-06-23,1.3893169010137885
2022-06-24,1.3983061067942868
2022-06-27,1.410890153177209
2022-06-28,1.4213487897801351
2022-06-29,1.4065451313936699
2022-06-30,1.4211595482171717
2022-07-01,1.4167532512661367
2022-07-04,1.4281461925068126
2022-07-05,1.4260173917271937
2022-07-06,1.4076186486826514
2022-07-07,1.4099037669005687
2022-07-08,1.412278597614726
2022-07-11,1.4049672215690507
2022-07-12,1.4037120022904268
2022-07-13,1.403155988711556
2022-07-14,1.4024830172889913
2022-07-15,1.3916113868543605
2022-07-18,1.3935178577763065
2022-07-19,1.3920803643429152
2022-07-20,1.3939671464456163
2022-07-21,1.3932787436462681
2022-07-22,1.3938423083698863
2022-07-25,1.3932176367244742
2022-07-26,1.3918262647423665
2022-07-27,1.3905584047863508
2022-07-28,1.3910447277060123
2022-07-29,1.3886840537884912
2022-08-01,1.3890719165546421
2022-08-02,1.3869526055712338
2022-08-03,1.3845825364447093
2022-08-04,1.385001048016332
2022-08-05,1.3851213711426875
2022-08-08,1.3852506023623385
2022-08-09,1.3852163578759364
2022-08-10,1.3843833284894553
2022-08-11,1.3877015935195105
2022-08-12,1.3856284090397766
2022-08-15,1.3821632487666826
2022-08-16,1.380874464954586
2022-08-17,1.3850102047636197
2022-08-18,1.3815300931655505
2022-08-19,1.3825975344127115
2022-08-22,1.3891571800640383
2022-08-23,1.388639412924066
2022-08-24,1.3825725364226864
2022-08-25,1.3909455032998896
2022-08-26,1.386539293735982
2022-08-29,1.3862988449298757
2022-08-30,1.3822942622908165
2022-08-31,1.3806824515427125
2022-09-01,1.3807609854678993
2022-09-02,1.3784214381740294
2022-09-05,1.3832893018351866
2022-09-06,1.3867044871179561
2022-09-07,1.3841410984170661
2022-09-08,1.3850663209133673
2022-09-09,1.3944871835190917
2022-09-13,1.3930303750456872
2022-09-14,1.3878692765881708
2022-09-15,1.3910573670321735
2022-09-16,1.3741117449953528
2022-09-19,1.3779179352813313
2022-09-20,1.3722219930410022
2022-09-21,1.3702549580926466
2022-09-22,1.3669893738989403
2022-09-23,1.366825294470843
2022-09-26,1.3661151389626913
2022-09-27,1.3680849784211468
2022-09-28,1.3666060576992085
2022-09-29,1.3645804415125184
2022-09-30,1.364624419620569
2022-10-10,1.361149889853967
2022-10-11,1.360203784464216
2022-10-12,1.3598530326426155
2022-10-13,1.3589476177032855
2022-10-14,1.3581087614830485
2022-10-17,1.358385215670051
2022-10-18,1.3585371635219454
2022-10-19,1.3574397153374302
2022-10-20,1.3562069477548326
2022-10-21,1.3565229328016866
2022-10-24,1.353837507743128
2022-10-25,1.3520719495545115
2022-10-26,1.353002195485202
2022-10-27,1.3527884185718082
2022-10-28,1.3514348974672572
2022-10-31,1.3530901990230952
2022-11-01,1.3541758822567653
2022-11-02,1.3555222850981279
2022-11-03,1.3546912895533136
2022-11-04,1.357245957311272
2022-11-07,1.3576877424360632
2022-11-08,1.3550421361443645
2022-11-09,1.3524669827844262
2022-11-10,1.3493163215065564
2022-11-11,1.3525558897735972
2022-11-14,1.3500648444124346
2022-11-15,1.3553022381995912
2022-11-16,1.351066108056016
2022-11-17,1.3494499555608144
2022-11-18,1.3474305130247832
2022-11-21,1.3438837605267049
2022-11-22,1.3466636152945628
2022-11-23,1.3476035090782563
2022-11-24,1.3442783601769617
2022-11-25,1.3532246900229692
2022-11-28,1.3449755983268856
2022-11-29,1.3624053154345563
2022-11-30,1.3593011957548888
2022-12-01,1.3614960633980424
2022-12-02,1.3552667713089626
2022-12-05,1.3759443442156885
2022-12-06,1.3755098927675027
2022-12-07,1.370943228356778
2022-12-08,1.3709739696137226
2022-12-09,1.3813025670538195
2022-12-12,1.3679378966698361
2022-12-13,1.369564414931037
2022-12-14,1.374111229038536
2022-12-15,1.369191627967399
2022-12-16,1.372429554208943
2022-12-19,1.3579025320099347
2022-12-20,1.3467672001082118
2022-12-21,1.3487099090302213
2022-12-22,1.3496395062289162
2022-12-23,1.3497895181739947
2022-12-26,1.347430758963806
2022-12-27,1.3487295758618472
2022-12-28,1.3478509171652255
2022-12-29,1.3465712202162858
2022-12-30,1.3467258379963545
2023-01-03,1.3462054245973976
2023-01-04,1.3468979343875616
2023-01-05,1.3488225845307038
2023-01-06,1.349054712739998
2023-01-09,1.3506263647776684
2023-01-10,1.3503151963869213
2023-01-11,1.350387056581161
2023-01-12,1.3498278108531636
2023-01-13,1.3564332544380635
2023-01-16,1.3632731147213284
2023-01-17,1.3607450304567155
2023-01-18,1.3576144534460395
2023-01-19,1.3618967784733575
2023-01-20,1.3651578016144434
2023-01-30,1.362885946229397
2023-01-31,1.3568794290997832
2023-02-01,1.3657955037966658
2023-02-02,1.3610416999812986
2023-02-03,1.3555264012330395
2023-02-06,1.347978831330793
2023-02-07,1.3487719945792684
2023-02-08,1.3452216105101054
2023-02-09,1.350065767574398
2023-02-10,1.3490839047897638
2023-02-13,1.351693701326748
2023-02-14,1.353137825732122
2023-02-15,1.351746542566303
2023-02-16,1.3488849278806807
2023-02-17,1.3470130353089136
2023-02-20,1.356206769638492
2023-02-21,1.3586753659970363
2023-02-22,1.357819213912495
2023-02-23,1.3560336592105549
2023-02-24,1.3533717128308786
2023-02-27,1.3529902710599508
2023-02-28,1.3553787063598006
2023-03-01,1.3626181548249174
2023-03-02,1.3673280418584364
2023-03-03,1.3723239702552879
2023-03-06,1.3680844136292112
2023-03-07,1.3609472547161483
2023-03-08,1.3622461265374417
2023-03-09,1.3625479414349464
2023-03-10,1.3565888673454154
2023-03-13,1.3667108659063423
2023-03-14,1.3641881882173803
2023-03-15,1.3686297750188658
2023-03-16,1.362847556047375
2023-03-17,1.3694295691665523
2023-03-20,1.3648495956449274
2023-03-21,1.362948685770482
2023-03-22,1.365195010899429
2023-03-23,1.3686339952767612
2023-03-24,1.364030227139973
2023-03-27,1.3589665614791453
2023-03-28,1.3579669252910045
2023-03-29,1.3571816737731994
2023-03-30,1.3549865164101635
2023-03-31,1.3555851560262915
2023-04-03,1.3550052997730204
2023-04-04,1.3584518972831803
2023-04-06,1.360098507476899
2023-04-07,1.3620472157465746
2023-04-10,1.3627436800885857
2023-04-11,1.3627297766457478
2023-04-12,1.3657794508046173
2023-04-13,1.3609578784929834
2023-04-14,1.3630297266717106
2023-04-17,1.3674661262163137
2023-04-18,1.3681581636662479
2023-04-19,1.360769372248038
2023-04-20,1.3617556663693786
2023-04-21,1.351584789400193
2023-04-24,1.349903817596159
2023-04-25,1.349028194368191
2023-04-26,1.3445310972469178
2023-04-27,1.3474713737557653
2023-04-28,1.3496025268030727
2023-05-04,1.3509969664250427
2023-05-05,1.348495175887702
2023-05-08,1.3542862388039025
2023-05-09,1.3504201889547287
2023-05-10,1.345078346864421
2023-05-11,1.3466055352551436
2023-05-12,1.3432805638144867
2023-05-15,1.3450991097834626
2023-05-16,1.3443284564448348
2023-05-17,1.3425765612731337
2023-05-18,1.3426826291062324
2023-05-19,1.3394627104427939
2023-05-22,1.3413518993773879
2023-05-23,1.3393880759627974
2023-05-24,1.337394522394082
2023-05-25,1.3365827216257997
2023-05-26,1.3366342250742933
2023-05-29,1.3376547142013089
2023-05-30,1.336961778326629
2023-05-31,1.3365534571573312
2023-06-01,1.3348269869879652
2023-06-02,1.334807785503868
2023-06-05,1.334319981042244
2023-06-06,1.3313107099465018
2023-06-07,1.33149426552351
2023-06-08,1.3318267620857718
2023-06-09,1.3322278302017767
2023-06-12,1.3317624518524724
2023-06-13,1.331918295136524
2023-06-14,1.332565593077948
2023-06-15,1.33463932627663
2023-06-16,1.3366629862785304
2023-06-19,1.3339995735263848
2023-06-20,1.335432708791276
2023-06-21,1.3306132534389536
2023-06-26,1.3265589943713154
2023-06-27,1.3309010732756552
2023-06-28,1.3291523480020095
2023-06-29,1.3290644585142262
2023-06-30,1.3312469893971801
2023-07-03,1.3348048601850275
2023-07-04,1.3363430349008736
2023-07-05,1.3343954647850877
2023-07-06,1.3330384090708365
2023-07-07,1.3333835083229952
2023-07-10,1.3326598220556478
2023-07-11,1.3355072464454656
2023-07-12,1.3330260634361173
2023-07-13,1.3362800574334643
2023-07-14,1.3354613579473893
2023-07-17,1.3321348008066032
2023-07-18,1.3331676834436006
2023-07-19,1.3330096951180028
2023-07-20,1.3290617799828557
2023-07-21,1.329813397004054
2023-07-24,1.3284049806876834
2023-07-25,1.3351256875770299
2023-07-26,1.3342298657226803
2023-07-27,1.334543671693322
2023-07-28,1.352822228177795
2023-07-31,1.3592401069377436
2023-08-01,1.3536451888282832
2023-08-02,1.3495078240564518
2023-08-03,1.355963717343114
2023-08-04,1.3578387788051836
2023-08-07,1.3505612197863814
2023-08-08,1.3465547823507524
2023-08-09,1.344699184254097
2023-08-10,1.347026180454296
2023-08-11,1.3314761120681031
2023-08-14,1.3304095915953966
2023-08-15,1.3298854254482286
2023-08-16,1.3289854245009416
2023-08-17,1.3289190244546671
2023-08-18,1.3273945946671482
2023-08-21,1.3260302180299879
2023-08-22,1.3263413035004286
2023-08-23,1.3260180914674335
2023-08-24,1.3247016003001455
2023-08-25,1.3252155732894255
2023-08-28,1.3250826087526038
2023-08-29,1.3243160384719663
2023-08-30,1.3242483833625853
2023-08-31,1.3220525618441008
2023-09-01,1.324354312191273
2023-09-04,1.3261647304054238
2023-09-05,1.324578858950609
2023-09-06,1.3240845836974913
2023-09-07,1.3229567828243236
2023-09-08,1.3215312490674476
2023-09-11,1.3212328901613908
2023-09-12,1.320390232158399
2023-09-13,1.3202268473287895
2023-09-14,1.322056165746942
2023-09-15,1.3204159477413409
2023-09-18,1.3213922328686682
2023-09-19,1.3224379795655616
2023-09-20,1.3214619060076551
2023-09-21,1.3191230224024724
2023-09-22,1.3199259486419586
2023-09-25,1.3199483136105443
2023-09-26,1.3188609445295516
2023-09-27,1.3178381134618498
2023-09-28,1.3170563055668754
2023-10-09,1.318348305673548
2023-10-10,1.3181237853908878
2023-10-11,1.318094275499917
2023-10-12,1.3184809606529726
2023-10-13,1.3185750250699644
2023-10-16,1.317288396735789
2023-10-17,1.3182186254702284
2023-10-18,1.3181654485953906
2023-10-19,1.3155007386352215
2023-10-20,1.3142043342075063
2023-10-23,1.314516939599781
2023-10-24,1.3142395962225948
2023-10-25,1.314615816559519
2023-10-26,1.3141959319759655
2023-10-27,1.3154186212431793
2023-10-30,1.3188893947322784
2023-10-31,1.3184343605718771
2023-11-01,1.3171294039024577
2023-11-02,1.3157057352564776
2023-11-03,1.3166264931583245
2023-11-06,1.3192637720650258
2023-11-07,1.318566696010172
2023-11-08,1.318328280091603
2023-11-09,1.3168982909120706
2023-11-10,1.3162987081159643
2023-11-13,1.3142004445661901
2023-11-14,1.3145606289096585
2023-11-15,1.315774419792633
2023-11-16,1.3136220465052124
2023-11-17,1.3128435199588733
2023-11-20,1.3125949514370086
2023-11-21,1.3120583562968975
2023-11-22,1.310948657324119
2023-11-23,1.3117202214864294
2023-11-24,1.3115440948184138
2023-11-27,1.3108894223546015
2023-11-28,1.3105546941765955
2023-11-29,1.3108813773181502
2023-11-30,1.3120436524092554
2023-12-01,1.311147159473509
2023-12-04,1.311907433591127
2023-12-05,1.3094784797662893
2023-12-06,1.309424025678076
2023-12-07,1.3090316593575961
2023-12-08,1.3094405297653824
2023-12-11,1.3106278344711946
2023-12-12,1.3115841173700564
2023-12-13,1.3108918471431485
2023-12-14,1.3102985239009606
2023-12-15,1.308833555229771
2023-12-18,1.3101911726347424
2023-12-19,1.3100254203265203
2023-12-20,1.3095723993585373
2023-12-21,1.3095172632499712
2023-12-22,1.3100122152983769
2023-12-25,1.3112423178122035
2023-12-26,1.3111397475637088
2023-12-27,1.312331785749408
2023-12-28,1.3103513730052494
2023-12-29,1.3137003262334725
2024-01-02,1.3133372376959682
2024-01-03,1.3141299231332857
2024-01-04,1.314134532967012
2024-01-05,1.3122002962331067
2024-01-08,1.3092259318038784
2024-01-09,1.3102013056425843
2024-01-10,1.3096498869138156
2024-01-11,1.308591946539906
2024-01-12,1.3105662411406254
2024-01-15,1.3121653827671587
2024-01-16,1.3145491578869288
2024-01-17,1.3109069851968718
2024-01-18,1.3134076336016023
2024-01-19,1.3116252752215896
2024-01-22,1.3087143137148123
2024-01-23,1.3095358819111023
2024-01-24,1.3123381823500144
2024-01-25,1.317381117491761
2024-01-26,1.3203990817177618
2024-01-29,1.3220304836553705
2024-01-30,1.3178188352949107
2024-01-31,1.315943709343423
2024-02-01,1.3121330801641617
2024-02-02,1.3125088982529804
2024-02-05,1.31405448875318
2024-02-06,1.319761759588768
2024-02-07,1.3243601867956865
2024-02-08,1.3228803873150499
2024-02-19,1.332466701211433
2024-02-20,1.335450131477268
2024-02-21,1.3419807292909989
2024-02-22,1.3476214508069864
2024-02-23,1.345047556367431
2024-02-26,1.3346333923219094
2024-02-27,1.3404946559866817
2024-02-28,1.3321436091595702
2024-02-29,1.3450539843061997
2024-03-01,1.3466771837487859
2024-03-04,1.3487694170272924
2024-03-05,1.3557319961915744
2024-03-06,1.3528265296736313
2024-03-07,1.3496373595110875
2024-03-08,1.3512927871679503
2024-03-11,1.3556570486189712
2024-03-12,1.3509022274401934
2024-03-13,1.3470623188596078
2024-03-14,1.3476151747358969
2024-03-15,1.3472045599316531
2024-03-18,1.35428747010759
2024-03-19,1.3509680084286626
2024-03-20,1.351334952408729
2024-03-21,1.3518540222211832
2024-03-22,1.3455921395029808
2024-03-25,1.3429449836141145
2024-03-26,1.3461108125163606
2024-03-27,1.3420005534042672
2024-03-28,1.3426846557092764
2024-03-29,1.34534629640196
2024-04-01,1.3504722407225578
2024-04-02,1.3480364568240555
2024-04-03,1.349375602733008
2024-04-08,1.3476188070712907
2024-04-09,1.3454400673772084
2024-04-10,1.3475179879071206
2024-04-11,1.3486434565389385
2024-04-12,1.347477918723768
2024-04-15,1.3558921064209768
2024-04-16,1.3550397312392914
2024-04-17,1.3603970014107811
2024-04-18,1.3597099198434017
2024-04-19,1.3613181413939635
2024-04-22,1.3540681670472896
2024-04-23,1.3465355102318664
2024-04-24,1.3477864884728301
2024-04-25,1.349970680050036
2024-04-26,1.351104946964483
2024-04-29,1.3500567502174303
2024-04-30,1.3487741573752654
2024-05-06,1.3570948365610565
2024-05-07,1.3580696832657062
2024-05-08,1.351858053849823
2024-05-09,1.35919912782866
2024-05-10,1.3604462549722778
2024-05-13,1.3611335818201387
2024-05-14,1.3617969295837205
2024-05-15,1.357218789817742
2024-05-16,1.3602114133653147
2024-05-17,1.371283131351456
2024-05-20,1.3740488919791092
2024-05-21,1.3716178549562452
2024-05-22,1.3718089302972902
2024-05-23,1.3649436305321618
2024-05-24,1.3574559327826123
2024-05-27,1.3602959882697543
2024-05-28,1.356175096142855
2024-05-29,1.3574143568904078
2024-05-30,1.352583881021849
2024-05-31,1.3496370492295149
2024-06-03,1.3532490429515847
2024-06-04,1.3537766416717434
2024-06-05,1.3535960877413202
2024-06-06,1.353746451053659
2024-06-07,1.3558741574224666
2024-06-11,1.3543885841755396
2024-06-12,1.3561817008622286
2024-06-13,1.3568981765131591
2024-06-14,1.3540940192788928
2024-06-17,1.3555995735404016
2024-06-18,1.3566723307543458
2024-06-19,1.356344044455623
2024-06-20,1.3556037081080625
2024-06-21,1.355907778076259
2024-06-24,1.355439818656815
2024-06-25,1.3537857819420194
2024-06-26,1.3543405043206684
2024-06-27,1.3542205781395882
2024-06-28,1.3556771714759004
2024-07-01,1.3575351868487031
2024-07-02,1.3589190181952042
2024-07-03,1.3578381499571135
2024-07-04,1.358411119435315
2024-07-05,1.3563765704249504
2024-07-08,1.3598764811369382
2024-07-09,1.3635110823040295
2024-07-10,1.3587085039789797
2024-07-11,1.3612643086665952
2024-07-12,1.3592598062992802
2024-07-15,1.361506763889097
2024-07-16,1.3643796675000834
2024-07-17,1.3623052842118364
2024-07-18,1.3646357064443735
2024-07-19,1.366674563313223
2024-07-22,1.3622175650215456
2024-07-23,1.3516940448189039
2024-07-24,1.3508812425999857
2024-07-25,1.3503315802429876
2024-07-26,1.348753193664383
2024-07-29,1.3451761953776347
2024-07-30,1.3433381337293349
2024-07-31,1.343343547083212
2024-08-01,1.3447385163221242
2024-08-02,1.3426579974664068
2024-08-05,1.34069917873836
2024-08-06,1.3405071440056766
2024-08-07,1.3397862001072196
2024-08-08,1.339254116396807
2024-08-09,1.3378384819081663
2024-08-12,1.3373624803104613
2024-08-13,1.3370257763768376
2024-08-14,1.336404717188255
2024-08-15,1.3385574215752198
2024-08-16,1.337182733776342
2024-08-19,1.3375914302358525
2024-08-20,1.3363488229963074
2024-08-21,1.3358736966488598
2024-08-22,1.3359286281528593
2024-08-23,1.3353496413692258
2024-08-26,1.334903521498441
2024-08-27,1.3328670375601133
2024-08-28,1.330491862361796
2024-08-29,1.3280586088783493
2024-08-30,1.3285103426246225
2024-09-02,1.3244817424547988
2024-09-03,1.3262833837526322
2024-09-04,1.3250522077155686
2024-09-05,1.3248393143320125
2024-09-06,1.3209448211408246
2024-09-09,1.318474889895893
2024-09-10,1.317868819451424
2024-09-11,1.3204209717574211
2024-09-12,1.3195322891733798
2024-09-13,1.3183944726815382
2024-09-18,1.3203570933041542
2024-09-19,1.3217825493729496
2024-09-20,1.3207435705685977
2024-09-23,1.320308603263348
2024-09-24,1.3256266697245174
2024-09-25,1.3307808981643328
2024-09-26,1.3531351941935383
2024-09-27,1.394784028705435
2024-09-30,1.474071857580247
2024-10-08,1.521811254547708
2024-10-09,1.4311552539949135
2024-10-10,1.451116257023725
2024-10-11,1.4231086704881097
2024-10-14,1.4445178814059831
2024-10-15,1.415271431571543
2024-10-16,1.4107270784602162
2024-10-17,1.388388164406077
2024-10-18,1.4166552923335507
2024-10-21,1.4236061021090258
2024-10-22,1.430439802235677
2024-10-23,1.4390343298314798
2024-10-24,1.4259623814180307
2024-10-25,1.4340494675617812
2024-10-28,1.439979286435847
2024-10-29,1.4301347312049866
2024-10-30,1.4273867832720504
2024-10-31,1.4308373853728555
2024-11-01,1.430620904464603
2024-11-04,1.4368418759897628
2024-11-05,1.4514245493585625
2024-11-06,1.450859022238765
2024-11-07,1.4666394299032544
2024-11-08,1.4580510608291506
2024-11-11,1.4581309964837683
2024-11-12,1.4504371861010876
2024-11-13,1.450042066197844
2024-11-14,1.4364482031496495
2024-11-15,1.428046250320446
2024-11-18,1.4273762494456748
2024-11-19,1.4254359300316877
2024-11-20,1.4253876399701075
2024-11-21,1.4252370664676322
2024-11-22,1.4194770330542603
2024-11-25,1.4186751001885398
2024-11-26,1.4184372300390014
2024-11-27,1.4199575759257397
2024-11-28,1.4198317714307336
2024-11-29,1.4196583163950387
2024-12-02,1.4191508116533509
2024-12-03,1.419284696834442
2024-12-04,1.419584637993088
2024-12-05,1.4194185775486812
2024-12-06,1.420595213715516
2024-12-09,1.4223201606251368
2024-12-10,1.4219560750526714
2024-12-11,1.4223901642692582
2024-12-12,1.4231425101624353
2024-12-13,1.4179831529971563
2024-12-16,1.419090839882009
2024-12-17,1.4191045499211672
2024-12-18,1.4216067188110524
2024-12-19,1.421424321858203
2024-12-20,1.4182994129627442
2024-12-23,1.4207054967775017
2024-12-24,1.4238650580705665
2024-12-25,1.425963137952247
2024-12-26,1.425727413491055
2024-12-27,1.4255104775481509
2024-12-30,1.4262239968807013
2024-12-31,1.4241338489591449
2025-01-02,1.4143638132318295
2025-01-03,1.4108489853606325
2025-01-06,1.4112318069321919
2025-01-07,1.410874557709814
2025-01-08,1.412779218997002
2025-01-09,1.4114371727531452
2025-01-10,1.4101019245466724
2025-01-13,1.4096530684598318
2025-01-14,1.410910951824217
2025-01-15,1.4110386068263974
2025-01-16,1.412043823658318
2025-01-17,1.4120195828653999
2025-01-20,1.4108112653254286
2025-01-21,1.4113025053791535
2025-01-22,1.4095349735762717
2025-01-23,1.4088768251245452
2025-01-24,1.4101016741262045
2025-01-27,1.4096554387738216
2025-02-05,1.4099312691692867
2025-02-06,1.4102714435447927
2025-02-07,1.4127143937626656
2025-02-10,1.414259578923111
2025-02-11,1.4133275448599583
2025-02-12,1.4193097768724008
2025-02-13,1.417417736292405
2025-02-14,1.4224084364280014
2025-02-17,1.4240838746294817
2025-02-18,1.4212254144843566
2025-02-19,1.4285058927474081
2025-02-20,1.4246234808348046
2025-02-21,1.4314009235915055
2025-02-24,1.4303659970311138
2025-02-25,1.422823532944638
2025-02-26,1.4262129498874396
2025-02-27,1.4279145256818995
2025-02-28,1.4186182974423924
2025-03-03,1.4187721580725166
2025-03-04,1.4168322883749083
2025-03-05,1.4186174491978345
2025-03-06,1.421947642182701
2025-03-07,1.4221343567679174
2025-03-10,1.4206627171277677
2025-03-11,1.423347488338097
2025-03-12,1.4199389974474763
2025-03-13,1.4187982267465338
2025-03-14,1.4262475446443705
2025-03-17,1.4270329031326594
2025-03-18,1.4253111710922368
2025-03-19,1.4263235886581016
2025-03-20,1.421788514181525
2025-03-21,1.41524681810649
2025-03-24,1.4164637278794159
2025-03-25,1.4161498431319668
2025-03-26,1.4158208604745537
2025-03-27,1.4158477355717338
2025-03-28,1.4136252267456169
2025-03-31,1.4126647118247861
2025-04-01,1.4130319667554827
2025-04-02,1.4113577237158081
2025-04-03,1.4125142975559077
2025-04-07,1.4045727179336043
2025-04-08,1.4117445060752838
2025-04-09,1.4136566219729414
2025-04-10,1.414199771604305
2025-04-11,1.4086253668191322
2025-04-14,1.4086890541817536
2025-04-15,1.4067631911966374
2025-04-16,1.4093220550063184
2025-04-17,1.4094649296694293
2025-04-18,1.4072575198135588
2025-04-21,1.4061016588266975
2025-04-22,1.4067844975161456
2025-04-23,1.402693891064766
2025-04-24,1.4042417898757793
2025-04-25,1.4022511730589207
2025-04-28,1.4011311572808862
2025-04-29,1.4005338737262276
2025-04-30,1.3988836616664122
2025-05-06,1.398234839834287
2025-05-07,1.3984144815538901
2025-05-08,1.398251226861841
2025-05-09,1.3978073162548512
2025-05-12,1.404764371453414
2025-05-13,1.4040594821070953
2025-05-14,1.4077669328879137
2025-05-15,1.4011017062653384
2025-05-16,1.397723967528094
2025-05-19,1.397493813830338
2025-05-20,1.4013198432371858
2025-05-21,1.4037680046608976
2025-05-22,1.403623329124184
2025-05-23,1.3975652208680989
2025-05-26,1.395440706942443
2025-05-27,1.3920172973950113
2025-05-28,1.3935503281561012
2025-05-29,1.3921496626348773
2025-05-30,1.391121155440192
2025-06-03,1.3912638386778624
2025-06-04,1.3900617502848174
2025-06-05,1.3889999500541925
2025-06-06,1.3889107342741358
2025-06-09,1.39135929261854
2025-06-10,1.3912033405596953
2025-06-11,1.3929492075821723
2025-06-12,1.3932790689441938
2025-06-13,1.3935866822337648
2025-06-16,1.3929876665546457
2025-06-17,1.3925602430634467
2025-06-18,1.3916078942208863
2025-06-19,1.389261445837834
2025-06-20,1.3899554693840759
2025-06-23,1.390857741501019
2025-06-24,1.3909943057305356
2025-06-25,1.3943421213079759
2025-06-26,1.3925863593575956
2025-06-27,1.3913519722496883
2025-06-30,1.3937853788071266
2025-07-01,1.393252794437009
2025-07-02,1.3952797110865753
2025-07-03,1.3978170434711625
2025-07-04,1.3994692303712566
2025-07-07,1.3976227278309241
2025-07-08,1.4040205770746068
2025-07-09,1.4024730970956762
2025-07-10,1.407708616601609
2025-07-11,1.4078918201067976
2025-07-14,1.4066142406042266
2025-07-15,1.4049200268621547
2025-07-16,1.402548370466341
2025-07-17,1.4085181449660846
2025-07-18,1.4131285604584956
2025-07-21,1.4202623993998775
2025-07-22,1.4367447941050544
2025-07-23,1.429952749102964
2025-07-24,1.4392155831439275
2025-07-25,1.4296093300036479
2025-07-28,1.427224321206662
2025-07-29,1.4295602236202283
2025-07-30,1.4310000180116753
2025-07-31,1.410766329799369
2025-08-01,1.4058901712925562
2025-08-04,1.4055844385105734
2025-08-05,1.4072936448639168
2025-08-06,1.4082645324390994
2025-08-07,1.4085346131502687
2025-08-08,1.4090937372175958
2025-08-11,1.408809631948936
2025-08-12,1.4100691003365753
2025-08-13,1.4123348231973152
2025-08-14,1.4098249918401924
2025-08-15,1.415358669359666
2025-08-18,1.4197867745222459
2025-08-19,1.41420377576081
2025-08-20,1.419791705319982
2025-08-21,1.4247515927060543
2025-08-22,1.4328349097988402
2025-08-25,1.4405779005256476
2025-08-26,1.444584694880865
2025-08-27,1.4279373323383246
2025-08-28,1.4330760935315605
2025-08-29,1.4336121931707027
2025-09-01,1.436868152533948
2025-09-02,1.4302567438629004
2025-09-03,1.4243198707962912
2025-09-04,1.4170196990159882
2025-09-05,1.4293265540677946
2025-09-08,1.43517421240598
2025-09-09,1.4331852820736295
2025-09-10,1.4296764899052268
2025-09-11,1.4346107670938495
2025-09-12,1.4328219499311592
2025-09-15,1.436951372803976
2025-09-16,1.435281025466227
2025-09-17,1.43738590260803
2025-09-18,1.4297031637740567
2025-09-19,1.4321848881509034
2025-09-22,1.4335011757497669
2025-09-23,1.4334696497583435
2025-09-24,1.4376979155821217
2025-09-25,1.4388190130361806
2025-09-26,1.4365362637203913
2025-09-29,1.4399566563029014
2025-09-30,1.4430374851592127
2025-10-09,1.445922138983901
2025-10-10,1.4395912390035701
2025-10-13,1.4388165635749837
2025-10-14,1.436048563853084
2025-10-15,1.4383627301396211
2025-10-16,1.441942433372712
2025-10-17,1.4337047755674726
2025-10-20,1.4328570331402872
2025-10-21,1.4346058417789158
2025-10-22,1.433193779266046
2025-10-23,1.4340934061631336
2025-10-24,1.431855292230785
2025-10-27,1.435149040914748
2025-10-28,1.4316871874368706
2025-10-29,1.4361116375501743
2025-10-30,1.4375870499335166
2025-10-31,1.4304475443300442
2025-11-03,1.4329367707991754
2025-11-04,1.4286146214004143
2025-11-05,1.4301497606286317
2025-11-06,1.4312110497720507
2025-11-07,1.4343003330778334
2025-11-10,1.4392088745339633
2025-11-11,1.4386436811059593
2025-11-12,1.4362696447867263
2025-11-13,1.4394456478243953
2025-11-14,1.43584601053631
2025-11-17,1.432535569368305
2025-11-18,1.4281613328977198
2025-11-19,1.4303535230458537
2025-11-20,1.4256522138444208
2025-11-21,1.4222023354174682
2025-11-24,1.42087514943033
2025-11-25,1.4209030440969266
2025-11-26,1.4199607614810057
2025-11-27,1.4200091637315007
2025-11-28,1.42052703993991
2025-12-01,1.4225657825078089
2025-12-02,1.4209255441413602
2025-12-03,1.4200004871429566
2025-12-04,1.4196568798793539
2025-12-05,1.4179468014788312
2025-12-08,1.4180689493989618
2025-12-09,1.4160778037625081
2025-12-10,1.4153967061102963
2025-12-11,1.412479315232073
2025-12-12,1.4134943066174475
2025-12-15,1.413907937230292
2025-12-16,1.413066906157015
2025-12-17,1.4153304971939733
2025-12-18,1.4150736156754515
2025-12-19,1.416130270364883
2025-12-22,1.4161620595353777
2025-12-23,1.4144290240960524
2025-12-24,1.4154063423592986
2025-12-25,1.4169416174429657
2025-12-26,1.4190284214807776
2025-12-29,1.4179354194532123
2025-12-30,1.416483995519148
2025-12-31,1.4178506265587636
2026-01-05,1.4191045277386443
2026-01-06,1.429201487601165
2026-01-07,1.425176489725195
2026-01-08,1.4236457506320348
2026-01-09,1.4269407699828898
2026-01-12,1.4326050680792952
2026-01-13,1.4245984445669204
2026-01-14,1.4200351333050492
2026-01-15,1.4196234649399577
2026-01-16,1.4155161728152403
2026-01-19,1.4193758687490399
2026-01-20,1.4236486261553616
2026-01-21,1.4227486912425156
2026-01-22,1.4247744012219041
2026-01-23,1.4218555388500165
2026-01-26,1.4200561528168794
2026-01-27,1.4214065540024725
2026-01-28,1.4238697842836168
2026-01-29,1.4260903643931744
2026-01-30,1.420298668577965
2026-02-02,1.4110752329530354
2026-02-03,1.4144535737554993
2026-02-04,1.4191814309765995
2026-02-05,1.4190100765019895
2026-02-06,1.4159455292909502
2026-02-09,1.4186175873339115
2026-02-10,1.4180483661480519
2026-02-11,1.4168019306273436
2026-02-12,1.4182781097157764
2026-02-13,1.4136617526583208
2026-02-24,1.4168126716784541
2026-02-25,1.4208840061327928
2026-02-26,1.4187633136626345
2026-02-27,1.4192551626881469
2026-03-02,1.4268852587930234
2026-03-03,1.4279401717359954
2026-03-04,1.4251485695631978
2026-03-05,1.4241893313441605
2026-03-06,1.4264553292968838
2026-03-09,1.4260405777125191
2026-03-10,1.4255065190432565
2026-03-11,1.4274119462496224
2026-03-12,1.4281779311370655
2026-03-13,1.426779739974601
2026-03-16,1.4265713669146012
2026-03-17,1.4243712236000794
2026-03-18,1.4221464291247763
2026-03-19,1.4222379124839004
2026-03-20,1.4216952509220573
2026-03-23,1.4168744952386652
2026-03-24,1.4163823647334743
2026-03-25,1.416353959644591
2026-03-26,1.4165268907543929
2026-03-27,1.417120464173658
2026-03-30,1.4166789370558592
2026-03-31,1.4150134424257248
2026-04-01,1.4141765510172961
2026-04-02,1.4137376699791193
2026-04-03,1.4122596204169227
2026-04-07,1.4117984012300517
2026-04-08,1.4121381664528174
2026-04-09,1.4125786755459677
2026-04-10,1.4130186214239182
2026-04-13,1.4120026023539103
2026-04-14,1.41340332575513
2026-04-15,1.4134958043220418
2026-04-16,1.415139610356989
2026-04-17,1.4128835852825314
2026-04-20,1.4162654819491534
2026-04-21,1.4167652181547186
2026-04-22,1.4148035691936351
2026-04-23,1.4139909101579644
2026-04-24,1.4127790551813464
2026-04-27,1.4141159927449787
2026-04-28,1.4125970443524414
2026-04-29,1.4140227045768847
2026-04-30,1.4130695729642417
2026-05-06,1.4169598395461562
2026-05-07,1.4157549136236758
2026-05-08,1.4152654497173889
2026-05-11,1.420554489182921
2026-05-12,1.4177346720432218
2026-05-13,1.4180243969123978
2026-05-14,1.4078196782104784
2026-05-15,1.4036535859699462
2026-05-18,1.399905925944498
2026-05-19,1.4016959691266764
2026-05-20,1.3971367091543316
2026-05-21,1.3927861475690213
2026-05-22,1.3926291101033386
2026-05-25,1.3935054626725882
2026-05-26,1.3932539824478554
2026-05-27,1.3927475800583236
2026-05-28,1.3921236137590876
2026-05-29,1.3911900378767645
2026-06-01,1.3913659819559805
2026-06-02,1.391187871534563
2026-06-03,1.3912994548918762
2026-06-04,1.3904339479863719
2026-06-05,1.3895821727147648
2026-06-08,1.3901396942254078
2026-06-09,1.3893112044703797
2026-06-10,1.3892033390266418
2026-06-11,1.3897603338818412
2026-06-12,1.3902653703373529
2026-06-15,1.3873585123883336
2026-06-16,1.386500193669838
2026-06-17,1.385763835765534
2026-06-18,1.3838911149798316
2026-06-22,1.3853229008827437
2026-06-23,1.3854407891925682
2026-06-24,1.388037549159274
2026-06-25,1.3897565427069156
2026-06-26,1.3851420994566563
2026-06-29,1.384064625209899
2026-06-30,1.384037757652933
2026-07-01,1.3855063727612358
2026-07-02,1.3833070468045547
2026-07-03,1.3847176193236768
2026-07-06,1.3864858249047571
2026-07-07,1.3834297683438166
2026-07-08,1.3807333266734534
2026-07-09,1.382927998496412
2026-07-10,1.3823136129189184
2026-07-13,1.3809342408279437
2026-07-14,1.38170546533511
2026-07-15,1.387295333965656
2026-07-16,1.3873416089914095
2026-07-17,1.3804841410020687
2026-07-20,1.387244279602489
2026-07-21,1.3817092161056237
2026-07-22,1.388806530672805
2026-07-23,1.387688500073962
2026-07-24,1.3783700789288063
2026-07-27,1.3777158040943538
2026-07-28,1.384464122903681
2026-07-29,1.3917546876118354
2026-07-30,1.4064990508270805
2026-07-31,1.4010686909471168
2026-08-03,1.3987418833851084
2026-08-04,1.3826368520926415
2026-08-05,1.3799579712454724
2026-08-06,1.3760803104870316
2026-08-07,1.3755009625086079
2026-08-10,1.380848233847872
2026-08-11,1.3713945596930022
2026-08-12,1.374881589843359
2026-08-13,1.3715882976913871
2026-08-14,1.369684047647426
2026-08-17,1.3704613121614908
2026-08-18,1.36995971153244
2026-08-19,1.3681854170680097
2026-08-20,1.3684676158186937
2026-08-21,1.3682598841410507
2026-08-24,1.3682433332026787
2026-08-25,1.3671122228012904
2026-08-26,1.3667745999998295
2026-08-27,1.3681046213935468
2026-08-28,1.3691590345536544
2026-08-31,1.368761374673527
2026-09-01,1.370377479151983
2026-09-02,1.3663581633066895
2026-09-03,1.3672657363185678
2026-09-04,1.370429672419626
2026-09-07,1.365400696561532
2026-09-08,1.3677390907288098
2026-09-09,1.3684635665167764
2026-09-10,1.3659772942532165
2026-09-11,1.3629237458424657
2026-09-14,1.3608156708515495
2026-09-15,1.3583519875793302
2026-09-16,1.3569235462359153
2026-09-17,1.3582309508368766
2026-09-18,1.3576797189742627
2026-09-21,1.3601433133881795
2026-09-22,1.3583972008616847
2026-09-23,1.3579981410548931
2026-09-24,1.3569769680648778
2026-09-28,1.35710487310729
2026-09-29,1.358062363241451
