date,equity
2018-10-16,1.0
2018-10-17,1.0
2018-10-18,1.0
2018-10-19,1.0
2018-10-22,1.0
2018-10-23,1.0
2018-10-24,1.0
2018-10-25,1.0
2018-10-26,1.0
2018-10-29,1.0
2018-10-30,1.0
2018-10-31,1.0
2018-11-01,1.0
2018-11-02,1.0
2018-11-05,1.0
2018-11-06,1.0
2018-11-07,1.0
2018-11-08,1.0
2018-11-09,1.0
2018-11-12,1.0
2018-11-13,0.9999736842105263
2018-11-14,0.9995368642295236
2018-11-15,1.000276963717494
2018-11-16,1.0030196453977231
2018-11-19,1.0052833134965466
2018-11-20,0.9944121063141068
2018-11-21,0.9945927931283192
2018-11-22,0.9946816138707754
2018-11-23,0.9829276386852049
2018-11-26,0.9842716314949448
2018-11-27,0.9862247354263378
2018-11-28,0.9895693513039929
2018-11-29,0.9860009746273548
2018-11-30,0.9859790529536583
2018-12-03,1.0303011695133057
2018-12-04,1.028746094816096
2018-12-05,1.0417634765034127
2018-12-06,1.0199812741584926
2018-12-07,1.0190030811383384
2018-12-10,1.0141448175353485
2018-12-11,1.0131260159312896
2018-12-12,1.0133069241691304
2018-12-13,1.022426660029559
2018-12-14,1.0059160657982968
2018-12-17,1.001893899002694
2018-12-18,1.0008599553878765
2018-12-19,0.9877496120174686
2018-12-20,0.9823105973835097
2018-12-21,0.9818109616181177
2018-12-24,0.9817467090711514
2018-12-25,0.9810429005117802
2018-12-26,0.9820198761972896
2018-12-27,0.9821908294487749
2018-12-28,0.9827556464845433
2019-01-02,0.9800774893047065
2019-01-03,0.9805087984969567
2019-01-04,0.9798000945919658
2019-01-07,0.9795412953724012
2019-01-08,0.9798879718791546
2019-01-09,0.9789452677195699
2019-01-10,0.9769425173586059
2019-01-11,0.9789435500686381
2019-01-14,0.9768000722697691
2019-01-15,0.9824054717524977
2019-01-16,0.982551475956161
2019-01-17,0.9802930764775416
2019-01-18,0.9967357821392501
2019-01-21,0.9982203958979511
2019-01-22,0.9761063552271996
2019-01-23,0.9839587854801721
2019-01-24,0.9985234371830208
2019-01-25,1.0076151837872236
2019-01-28,1.014725353406729
2019-01-29,1.0283392899080352
2019-01-30,1.019704496297691
2019-01-31,1.0436449204250868
2019-02-01,1.0621261153268629
2019-02-11,1.0913977823538346
2019-02-12,1.1036537275752532
2019-02-13,1.1242246351327079
2019-02-14,1.1376087901984937
2019-02-15,1.1057623275483057
2019-02-18,1.1666909185799728
2019-02-19,1.1591031468485664
2019-02-20,1.1758612523833967
2019-02-21,1.176662762081788
2019-02-22,1.2021968905076428
2019-02-25,1.2800873617099422
2019-02-26,1.2577135511438267
2019-02-27,1.2366615399607739
2019-02-28,1.2506084112754672
2019-03-01,1.296938308687224
2019-03-04,1.322830686694872
2019-03-05,1.3314619867695712
2019-03-06,1.3329180660590634
2019-03-07,1.289180461885463
2019-03-08,1.2263302214907683
2019-03-11,1.2565399013417315
2019-03-12,1.2593874518025139
2019-03-13,1.2432642281578032
2019-03-14,1.2358932412491475
2019-03-15,1.2574212292830078
2019-03-18,1.29154495008745
2019-03-19,1.282540616040291
2019-03-20,1.2762971813782944
2019-03-21,1.2680594159451717
2019-03-22,1.2667373165366502
2019-03-25,1.2372169367995678
2019-03-26,1.2349947813046411
2019-03-27,1.2529333465099624
2019-03-28,1.254681496875085
2019-03-29,1.2831397340211157
2019-04-01,1.30910149495619
2019-04-02,1.3068833068587145
2019-04-03,1.3206621977262172
2019-04-04,1.3311111614270048
2019-04-08,1.3336962386265991
2019-04-09,1.3408430674346485
2019-04-10,1.3581454326416353
2019-04-11,1.3177840948831567
2019-04-12,1.3107209044874502
2019-04-15,1.3123435248535034
2019-04-16,1.343248417832023
2019-04-17,1.3540772448264136
2019-04-18,1.3501443541811113
2019-04-19,1.3649415856780505
2019-04-22,1.337174872643374
2019-04-23,1.3376330199680708
2019-04-24,1.342982351035016
2019-04-25,1.3273673571525306
2019-04-26,1.3067476368183784
2019-04-29,1.3191019897236893
2019-04-30,1.3154461605689403
2019-05-06,1.288002630106681
2019-05-07,1.29546356040209
2019-05-08,1.2927231880476706
2019-05-09,1.2911372384912163
2019-05-10,1.2979265727407068
2019-05-13,1.296680517181346
2019-05-14,1.2967037447871927
2019-05-15,1.301561609045234
2019-05-16,1.3019654588939868
2019-05-17,1.2944805531774155
2019-05-20,1.2881287702956714
2019-05-21,1.2909465751409832
2019-05-22,1.2902638634337544
2019-05-23,1.2846015236298118
2019-05-24,1.2839754524705527
2019-05-27,1.286386672473513
2019-05-28,1.2901155073278183
2019-05-29,1.288315237888869
2019-05-30,1.2874749637487626
2019-05-31,1.2872510326824542
2019-06-03,1.2879109261722288
2019-06-04,1.2824679773166403
2019-06-05,1.2870207903316897
2019-06-06,1.2781422845717159
2019-06-10,1.2876841684793507
2019-06-11,1.2984209713338526
2019-06-12,1.2948662243065272
2019-06-13,1.287857555576737
2019-06-14,1.2853615752941054
2019-06-17,1.2853621914499123
2019-06-18,1.2889024768579023
2019-06-19,1.2978748158017235
2019-06-20,1.328541862253944
2019-06-21,1.3280469907958796
2019-06-24,1.3351272227433189
2019-06-25,1.3247336677842314
2019-06-26,1.3263170630396393
2019-06-27,1.352311819159994
2019-06-28,1.3521581440458026
2019-07-01,1.3979867082823978
2019-07-02,1.4059343586260278
2019-07-03,1.3871593400051365
2019-07-04,1.373020300500532
2019-07-05,1.3887180535684542
2019-07-08,1.3514605864805889
2019-07-09,1.3530949879230547
2019-07-10,1.353201186177112
2019-07-11,1.3489715718295598
2019-07-12,1.3534419071984758
2019-07-15,1.3573125032523226
2019-07-16,1.3453599051849152
2019-07-17,1.3459048242008036
2019-07-18,1.3370154585057656
2019-07-19,1.3426570394085162
2019-07-22,1.3434183432249311
2019-07-23,1.3512983074761806
2019-07-24,1.3550373778973388
2019-07-25,1.3621862145170451
2019-07-26,1.3687219668961828
2019-07-29,1.3668334299805434
2019-07-30,1.3673796298481922
2019-07-31,1.3598176148350791
2019-08-01,1.3565146994498967
2019-08-02,1.3458679066581523
2019-08-05,1.3304823799620324
2019-08-06,1.3227147428872064
2019-08-07,1.3238915508270888
2019-08-08,1.328309748860468
2019-08-09,1.3237346241184746
2019-08-12,1.3261738139637471
2019-08-13,1.3289538907862761
2019-08-14,1.3283985047789166
2019-08-15,1.3308882943261622
2019-08-16,1.3317850679239125
2019-08-19,1.3384405555314425
2019-08-20,1.3403356873500616
2019-08-21,1.3377785533119109
2019-08-22,1.3403704009438289
2019-08-23,1.3465940449699723
2019-08-26,1.3380479504827614
2019-08-27,1.3536674189070015
2019-08-28,1.354074941772818
2019-08-29,1.3507411495973358
2019-08-30,1.3548965068656946
2019-09-02,1.3731767653391878
2019-09-03,1.3755751950693451
2019-09-04,1.3777923545913955
2019-09-05,1.3820183911771284
2019-09-06,1.3855493470692433
2019-09-09,1.3891168328977295
2019-09-10,1.3840646784107442
2019-09-11,1.3683979512783693
2019-09-12,1.3730323678159275
2019-09-16,1.36868480316934
2019-09-17,1.3566202019776539
2019-09-18,1.3581669747895537
2019-09-19,1.3599462821305337
2019-09-20,1.3633384012901661
2019-09-23,1.3530578845954744
2019-09-24,1.35637851492738
2019-09-25,1.3525503051958634
2019-09-26,1.3490260462880004
2019-09-27,1.3515093740507986
2019-09-30,1.3469731427301568
2019-10-08,1.3464673031097456
2019-10-09,1.3445341083454132
2019-10-10,1.3453163123689682
2019-10-11,1.347226859681516
2019-10-14,1.34840269312973
2019-10-15,1.3488880256479503
2019-10-16,1.3479652527357915
2019-10-17,1.3517351455118336
2019-10-18,1.3443025961613773
2019-10-21,1.3463334375443956
2019-10-22,1.350547516009478
2019-10-23,1.3476650201771416
2019-10-24,1.3470882172921448
2019-10-25,1.3569429884483692
2019-10-28,1.3589407625551673
2019-10-29,1.3654949423532121
2019-10-30,1.3658026079889845
2019-10-31,1.36373013589973
2019-11-01,1.3733109020298062
2019-11-04,1.3812822723004168
2019-11-05,1.39310776182977
2019-11-06,1.390886907125465
2019-11-07,1.3958210539965423
2019-11-08,1.3991713057189712
2019-11-11,1.3790116909772396
2019-11-12,1.3791674965699798
2019-11-13,1.3843685675161483
2019-11-14,1.381690657057947
2019-11-15,1.37828022084309
2019-11-18,1.38065207462254
2019-11-19,1.3898025370481495
2019-11-20,1.3809297995548724
2019-11-21,1.3797640218964617
2019-11-22,1.3737005414716739
2019-11-25,1.3793041900830887
2019-11-26,1.3835414754002657
2019-11-27,1.380676570825509
2019-11-28,1.3801701108578388
2019-11-29,1.3739441791863303
2019-12-02,1.3810254563430626
2019-12-03,1.3866494031481391
2019-12-04,1.385277363818307
2019-12-05,1.3892946518539822
2019-12-06,1.3938161165921519
2019-12-09,1.398380829086185
2019-12-10,1.402237160790269
2019-12-11,1.3989909320358334
2019-12-12,1.393797589779311
2019-12-13,1.401756359206418
2019-12-16,1.4038271734013563
2019-12-17,1.4124206589225532
2019-12-18,1.405650249896074
2019-12-19,1.4046868738974252
2019-12-20,1.4019226546374097
2019-12-23,1.3916638845368319
2019-12-24,1.4090155994240767
2019-12-25,1.4160651157276587
2019-12-26,1.4209146187221395
2019-12-27,1.419680176581649
2019-12-30,1.437434191758467
2019-12-31,1.4345068782568224
2020-01-02,1.4547456962853824
2020-01-03,1.4560257741720402
2020-01-06,1.4529843210393614
2020-01-07,1.4577659163447523
2020-01-08,1.4445725710278616
2020-01-09,1.46311781191717
2020-01-10,1.4594850369037573
2020-01-13,1.47589413866103
2020-01-14,1.4735618185825958
2020-01-15,1.46900476560237
2020-01-16,1.4644980981850386
2020-01-17,1.4720340947365307
2020-01-20,1.476163126686495
2020-01-21,1.453432536097117
2020-01-22,1.4609094745275717
2020-01-23,1.4416089566788959
2020-02-03,1.4158261835372188
2020-02-04,1.4265955076595118
2020-02-05,1.4472939458398346
2020-02-06,1.45494234808834
2020-02-07,1.449630297643759
2020-02-10,1.4542615615697572
2020-02-11,1.45173005402189
2020-02-12,1.452743209051689
2020-02-13,1.4528138134541504
2020-02-14,1.4537317882635599
2020-02-17,1.468588610965732
2020-02-18,1.4719256569232215
2020-02-19,1.4704013290337454
2020-02-20,1.483137059336887
2020-02-21,1.4901420253724256
2020-02-24,1.4939030542384948
2020-02-25,1.5086421957569487
2020-02-26,1.4770294169745903
2020-02-27,1.4790099601421232
2020-02-28,1.4533893281883592
2020-03-02,1.4748822982460112
2020-03-03,1.4750061803830476
2020-03-04,1.4757738877251498
2020-03-05,1.4861635861926439
2020-03-06,1.463689645476028
2020-03-09,1.4257068977712224
2020-03-10,1.4470007326749206
2020-03-11,1.4296156661799575
2020-03-12,1.4095531341289524
2020-03-13,1.3977492892682593
2020-03-16,1.378927228527795
2020-03-17,1.378927228527795
2020-03-18,1.378927228527795
2020-03-19,1.3788909409691494
2020-03-20,1.3785019257844728
2020-03-23,1.3762923411315322
2020-03-24,1.3797442353359048
2020-03-25,1.380507698717479
2020-03-26,1.3844934855970503
2020-03-27,1.382916840421058
2020-03-30,1.3837078213430947
2020-03-31,1.3831824671907813
2020-04-01,1.3817292807313333
2020-04-02,1.382156836626966
2020-04-03,1.383314006932858
2020-04-07,1.3849769604499138
2020-04-08,1.3837235669893215
2020-04-09,1.3845425048035016
2020-04-10,1.3829873361058058
2020-04-13,1.3846186514769487
2020-04-14,1.3875914879568718
2020-04-15,1.3808409942081554
2020-04-16,1.3851215658091232
2020-04-17,1.3973660658036686
2020-04-20,1.4001444806667391
2020-04-21,1.3878894944877966
2020-04-22,1.3944724381485134
2020-04-23,1.3955932976451095
2020-04-24,1.3893801810765156
2020-04-27,1.389758451767599
2020-04-28,1.4096725797438128
2020-04-29,1.413281315004276
2020-04-30,1.4253051836271344
2020-05-06,1.4248023670521932
2020-05-07,1.421789763705626
2020-05-08,1.4311415890377295
2020-05-11,1.4315544172523171
2020-05-12,1.438560453603477
2020-05-13,1.437977266384884
2020-05-14,1.4196777118686115
2020-05-15,1.4150690230858904
2020-05-18,1.4149755578988543
2020-05-19,1.4226239385345945
2020-05-20,1.4144890904396201
2020-05-21,1.3994557476074891
2020-05-22,1.3681081599250975
2020-05-25,1.381568470448354
2020-05-26,1.3877428727827625
2020-05-27,1.4038118472082737
2020-05-28,1.3981159981827367
2020-05-29,1.4052346766359325
2020-06-01,1.4203222562779068
2020-06-02,1.4151710290481991
2020-06-03,1.4183204528199025
2020-06-04,1.4038225776766384
2020-06-05,1.410689819125469
2020-06-08,1.4293997068544517
2020-06-09,1.4550383435864087
2020-06-10,1.443444693728317
2020-06-11,1.4279438567788592
2020-06-12,1.420006149816331
2020-06-15,1.4038916569874187
2020-06-16,1.4141328213146305
2020-06-17,1.4162101365051536
2020-06-18,1.4217003433068476
2020-06-19,1.4323815526521897
2020-06-22,1.4375603256740552
2020-06-23,1.4522706503251142
2020-06-24,1.4652898983919738
2020-06-29,1.4658718097901802
2020-06-30,1.482829411377537
2020-07-01,1.5086402236633787
2020-07-02,1.5281342022376438
2020-07-03,1.5495047390805885
2020-07-06,1.6573371062943631
2020-07-07,1.6727767109129366
2020-07-08,1.6935642826923782
2020-07-09,1.7339499867725923
2020-07-10,1.6951669906774114
2020-07-13,1.7521769551645492
2020-07-14,1.7333479009351316
2020-07-15,1.736677978647905
2020-07-16,1.6193181782236683
2020-07-17,1.6329049569806506
2020-07-20,1.6761595469482642
2020-07-21,1.6921091273256355
2020-07-22,1.7001676238112773
2020-07-23,1.7283994069691044
2020-07-24,1.6682370701283222
2020-07-27,1.6841943226047849
2020-07-28,1.6828294629488365
2020-07-29,1.7121191604821508
2020-07-30,1.7161659561678282
2020-07-31,1.7306689708786769
2020-08-03,1.7455705495391933
2020-08-04,1.7410936310533793
2020-08-05,1.7530426192639035
2020-08-06,1.7521742431095422
2020-08-07,1.7456888284043135
2020-08-10,1.73407634458132
2020-08-11,1.7116319515835028
2020-08-12,1.6910555645659007
2020-08-13,1.6920139705722084
2020-08-14,1.6945053445052616
2020-08-17,1.7129843575909602
2020-08-18,1.7149973260452203
2020-08-19,1.7079956674896113
2020-08-20,1.696053358645569
2020-08-21,1.6954580209375048
2020-08-24,1.7093661161224782
2020-08-25,1.7122737417346965
2020-08-26,1.7068175854792669
2020-08-27,1.7063003149629692
2020-08-28,1.7222372519264517
2020-08-31,1.7279086867119937
2020-09-01,1.735165695942948
2020-09-02,1.7305562556803853
2020-09-03,1.7320324251502868
2020-09-04,1.7225396427986064
2020-09-07,1.7004842699214395
2020-09-08,1.709623917396044
2020-09-09,1.692640123307899
2020-09-10,1.7010365113703132
2020-09-11,1.7060859159154769
2020-09-14,1.7143378023381015
2020-09-15,1.7214092439700481
2020-09-16,1.7268274201081641
2020-09-17,1.7249862985534694
2020-09-18,1.73454863739465
2020-09-21,1.7210012304229407
2020-09-22,1.7061299948875863
2020-09-23,1.7049644148688843
2020-09-24,1.6873567696416334
2020-09-25,1.690042380591114
2020-09-28,1.6999002493476525
2020-09-29,1.6965164341133323
2020-09-30,1.699814532820973
2020-10-09,1.7118827309791262
2020-10-12,1.7410271672482327
2020-10-13,1.7551730068397537
2020-10-14,1.7482552715515354
2020-10-15,1.7478599222997933
2020-10-16,1.751629664206291
2020-10-19,1.7338196472406535
2020-10-20,1.7534893484848806
2020-10-21,1.7481423835119685
2020-10-22,1.74983710798699
2020-10-23,1.7190128570140872
2020-10-26,1.726147218810014
2020-10-27,1.7273772379908219
2020-10-28,1.740024473638264
2020-10-29,1.7451898539062742
2020-10-30,1.7357527548769969
2020-11-02,1.7638132220692386
2020-11-03,1.7772025326182452
2020-11-04,1.7897816188120759
2020-11-05,1.803509447220306
2020-11-06,1.8121589094782324
2020-11-09,1.825985011877427
2020-11-10,1.8154336502083661
2020-11-11,1.7993863315476437
2020-11-12,1.8041511268813883
2020-11-13,1.7858310693553994
2020-11-16,1.805074252691437
2020-11-17,1.8013601130373254
2020-11-18,1.7976171109571528
2020-11-19,1.7991373476114183
2020-11-20,1.8156158439826162
2020-11-23,1.8394320216377418
2020-11-24,1.8253583807584333
2020-11-25,1.8195053889752444
2020-11-26,1.8220249708370089
2020-11-27,1.8404222005032835
2020-11-30,1.83867740204492
2020-12-01,1.8544755566443551
2020-12-02,1.8527447655790104
2020-12-03,1.8318939499755558
2020-12-04,1.8412300429925161
2020-12-07,1.8219230687871968
2020-12-08,1.8144172395088094
2020-12-09,1.8039774988391661
2020-12-10,1.800929904059336
2020-12-11,1.7996937155415798
2020-12-14,1.7876460634025417
2020-12-15,1.7911852039827845
2020-12-16,1.7966123781825967
2020-12-17,1.8043027996911378
2020-12-18,1.8062618627417206
2020-12-21,1.829254602004569
2020-12-22,1.819580828710535
2020-12-23,1.8362543789251653
2020-12-24,1.8338445209469614
2020-12-25,1.848417930595966
2020-12-28,1.8562722144581254
2020-12-29,1.838111726208089
2020-12-30,1.8710540369568256
2020-12-31,1.8905330302447687
2021-01-04,1.9226733993975862
2021-01-05,1.9634766394087573
2021-01-06,1.977291644074998
2021-01-07,2.0280278444165907
2021-01-08,2.0145252682689803
2021-01-11,2.0005472267954514
2021-01-12,2.0628777155583555
2021-01-13,2.047185999837101
2021-01-14,1.9984902915472775
2021-01-15,2.00302645213418
2021-01-18,2.0146597613506083
2021-01-19,1.9799558122768537
2021-01-20,1.9835672953943027
2021-01-21,2.00266975058823
2021-01-22,1.9949361353801915
2021-01-25,2.0071475236165988
2021-01-26,1.9720109266071442
2021-01-27,1.986888967342905
2021-01-28,1.949966083651979
2021-01-29,1.9442534564917433
2021-02-01,1.9484390822818092
2021-02-02,1.9519831970936754
2021-02-03,1.9500326683997113
2021-02-04,1.9444334265649827
2021-02-05,1.9600113101029453
2021-02-08,1.9745199275504304
2021-02-09,1.9879754993066683
2021-02-10,2.021156107803752
2021-02-18,2.012286891732955
2021-02-19,2.000652660688539
2021-02-22,1.9652089774927755
2021-02-23,1.9668648832683673
2021-02-24,1.9313168686599067
2021-02-25,1.9399914966481229
2021-02-26,1.9108460913307164
2021-03-01,1.9169615479702313
2021-03-02,1.903323291321618
2021-03-03,1.9190954819014376
2021-03-04,1.9091304834381644
2021-03-05,1.9100553815578083
2021-03-08,1.9113322694599986
2021-03-09,1.9082836754045205
2021-03-10,1.9014529783326313
2021-03-11,1.9084163492714172
2021-03-12,1.9115178878472852
2021-03-15,1.9166875957876506
2021-03-16,1.916723923288042
2021-03-17,1.9080712148079866
2021-03-18,1.9066010719410205
2021-03-19,1.8919335294855484
2021-03-22,1.8965810780678651
2021-03-23,1.8889197726790172
2021-03-24,1.8834216908678967
2021-03-25,1.884339275521899
2021-03-26,1.883807837456016
2021-03-29,1.8875315006714688
2021-03-30,1.891233172726894
2021-03-31,1.8881332644669973
2021-04-01,1.8904704153119987
2021-04-02,1.897435688395812
2021-04-06,1.8891312786164676
2021-04-07,1.8856574448945194
2021-04-08,1.8856168517582017
2021-04-09,1.8715079464360682
2021-04-12,1.8676069751630167
2021-04-13,1.861516847852363
2021-04-14,1.8649605651521821
2021-04-15,1.8638400588906099
2021-04-16,1.870641174042295
2021-04-19,1.8892864471818218
2021-04-20,1.8911280934030277
2021-04-21,1.9007492334769278
2021-04-22,1.901194992098208
2021-04-23,1.90990395998222
2021-04-26,1.901009507380566
2021-04-27,1.9047048630741537
2021-04-28,1.9247451004900993
2021-04-29,1.9329829507802994
2021-04-30,1.9369437810991859
2021-05-06,1.9204193245855945
2021-05-07,1.901595543930413
2021-05-10,1.9129195752885142
2021-05-11,1.9129381900020732
2021-05-12,1.9175269371945995
2021-05-13,1.9083389635036958
2021-05-14,1.9218940514241363
2021-05-17,1.9412232033952064
2021-05-18,1.9376533694242009
2021-05-19,1.9380408402762723
2021-05-20,1.9303307014673357
2021-05-21,1.9231235803176499
2021-05-24,1.9322860152175432
2021-05-25,1.951279786298966
2021-05-26,1.9561442431484823
2021-05-27,1.953768927489608
2021-05-28,1.9620806152609602
2021-05-31,1.968494337551282
2021-06-01,1.969749652528447
2021-06-02,1.9577173762665325
2021-06-03,1.9509315821945545
2021-06-04,1.96060941056936
2021-06-07,1.9518414906916655
2021-06-08,1.9516102530265012
2021-06-09,1.951535140343712
2021-06-10,1.9629219244726894
2021-06-11,1.9603367467439292
2021-06-15,1.9591330072853357
2021-06-16,1.9444561551371222
2021-06-17,1.9515516254768124
2021-06-18,1.9541892384448964
2021-06-21,1.9494085641324892
2021-06-22,1.9488605651812152
2021-06-23,1.947891611871221
2021-06-24,1.9522183188543711
2021-06-25,1.956145742154265
2021-06-28,1.9609499120847624
2021-06-29,1.9566229090179745
2021-06-30,1.961274396639129
2021-07-01,1.9545692578758482
2021-07-02,1.9305471266362326
2021-07-05,1.933616223465336
2021-07-06,1.9230568114556064
2021-07-07,1.9313249001405304
2021-07-08,1.9295919247789053
2021-07-09,1.9308075174873187
2021-07-12,1.9316696410374794
2021-07-13,1.9256486709700151
2021-07-14,1.9151642430419724
2021-07-15,1.9160404268433509
2021-07-16,1.908891220990062
2021-07-19,1.9100344758447272
2021-07-20,1.910400641388438
2021-07-21,1.9247590518071542
2021-07-22,1.920131715378491
2021-07-23,1.915057540219321
2021-07-26,1.8929403749491325
2021-07-27,1.8719582663936638
2021-07-28,1.8677476703256533
2021-07-29,1.877170508549712
2021-07-30,1.8859921255031662
2021-08-02,1.8948127541215272
2021-08-03,1.8921651972743623
2021-08-04,1.9042433703354282
2021-08-05,1.9020269794368059
2021-08-06,1.89469685486285
2021-08-09,1.8951609436231733
2021-08-10,1.894378377514228
2021-08-11,1.8847904248889906
2021-08-12,1.8941625416223107
2021-08-13,1.8856746484618552
2021-08-16,1.8841456878478617
2021-08-17,1.8769782828982826
2021-08-18,1.8796751163216519
2021-08-19,1.8678533191046909
2021-08-20,1.8629846281319846
2021-08-23,1.862510605944031
2021-08-24,1.8629718443256034
2021-08-25,1.8653793458865764
2021-08-26,1.8581167682462267
2021-08-27,1.8621672893722958
2021-08-30,1.866247611473702
2021-08-31,1.887379874077688
2021-09-01,1.8883572927298786
2021-09-02,1.8961849026985753
2021-09-03,1.8885538410344085
2021-09-06,1.8964179920490618
2021-09-07,1.904119922994072
2021-09-08,1.8982691842734143
2021-09-09,1.9126352782398837
2021-09-10,1.9181621852728448
2021-09-13,1.9123752802926501
2021-09-14,1.88160578793769
2021-09-15,1.8682674323853667
2021-09-16,1.8616136756945811
2021-09-17,1.8616213637073136
2021-09-22,1.8781264876093404
2021-09-23,1.8716957413869897
2021-09-24,1.8686221540055956
2021-09-27,1.8689900460583466
2021-09-28,1.8808237686374545
2021-09-29,1.8721144659910465
2021-09-30,1.879028020909183
2021-10-08,1.8859409985415883
2021-10-11,1.885670937511332
2021-10-12,1.879644377676932
2021-10-13,1.876720399139163
2021-10-14,1.8681793430847407
2021-10-15,1.865817830801416
2021-10-18,1.8494739823086437
2021-10-19,1.852664519203545
2021-10-20,1.8475017905119626
2021-10-21,1.8451370080155027
2021-10-22,1.851573513039387
2021-10-25,1.8535258377848984
2021-10-26,1.844388163998259
2021-10-27,1.8351843979089517
2021-10-28,1.8413694321370455
2021-10-29,1.8556033084325005
2021-11-01,1.8564572742795158
2021-11-02,1.8472088493206678
2021-11-03,1.8381856888036066
2021-11-04,1.8440037977854387
2021-11-05,1.84124114538068
2021-11-08,1.8344185552519283
2021-11-09,1.8303608388624648
2021-11-10,1.8217855019981954
2021-11-11,1.8273664439817223
2021-11-12,1.824856335040475
2021-11-15,1.8206296832609938
2021-11-16,1.8186193849580417
2021-11-17,1.8157746369027057
2021-11-18,1.8089767420102858
2021-11-19,1.81593404034966
2021-11-22,1.8126228394900312
2021-11-23,1.8108959270909568
2021-11-24,1.8104449003777803
2021-11-25,1.8078674054298984
2021-11-26,1.8027943079337774
2021-11-29,1.8067916124556853
2021-11-30,1.8056389984439394
2021-12-01,1.8028577356240247
2021-12-02,1.8031564885753026
2021-12-03,1.8245595566663286
2021-12-06,1.819049373586663
2021-12-07,1.8181091164420236
2021-12-08,1.8253261003409487
2021-12-09,1.83544449437925
2021-12-10,1.8258443009418548
2021-12-13,1.8350219827023175
2021-12-14,1.8221232082648793
2021-12-15,1.8140354271587795
2021-12-16,1.8277275911912882
2021-12-17,1.808413974275847
2021-12-20,1.8006912631104033
2021-12-21,1.808340780523029
2021-12-22,1.8078051855050747
2021-12-23,1.8200112436502693
2021-12-24,1.8238816020392075
2021-12-27,1.8186198204410122
2021-12-28,1.8154513093289022
2021-12-29,1.8031671564841194
2021-12-30,1.8069942265415466
2021-12-31,1.8086904548647302
2022-01-04,1.807604393863031
2022-01-05,1.8034159852557812
2022-01-06,1.7927108622484964
2022-01-07,1.812907828818739
2022-01-10,1.819157965462645
2022-01-11,1.8127562063911429
2022-01-12,1.805136898936089
2022-01-13,1.7979808215247874
2022-01-14,1.7769773087940104
2022-01-17,1.7762018100647934
2022-01-18,1.7906649330175772
2022-01-19,1.7940898298324917
2022-01-20,1.8027948951413073
2022-01-21,1.7969789969565726
2022-01-24,1.7868398310940707
2022-01-25,1.775082720901283
2022-01-26,1.775318959181427
2022-01-27,1.7662991383588147
2022-01-28,1.7564254450704286
2022-02-07,1.7714183916947621
2022-02-08,1.781526665948613
2022-02-09,1.7866353648665674
2022-02-10,1.7913400397476051
2022-02-11,1.7972778157197176
2022-02-14,1.7858655580757041
2022-02-15,1.7742183326271042
2022-02-16,1.778051930166241
2022-02-17,1.7800084119240263
2022-02-18,1.7899706965682736
2022-02-21,1.7876029234278348
2022-02-22,1.7814498853356147
2022-02-23,1.77422059120888
2022-02-24,1.7677349188223537
2022-02-25,1.7641446906218545
2022-02-28,1.7668983313005886
2022-03-01,1.7698929785697868
2022-03-02,1.7726219287153853
2022-03-03,1.7737584103582067
2022-03-04,1.771743967678367
2022-03-07,1.7678801742635084
2022-03-08,1.7563899674459151
2022-03-09,1.7577489405607054
2022-03-10,1.7583256215527332
2022-03-11,1.7592731207609484
2022-03-14,1.7537975620591884
2022-03-15,1.7335530038388665
2022-03-16,1.7410869908002382
2022-03-17,1.7455401800104917
2022-03-18,1.7470239539195132
2022-03-21,1.7554388448121943
2022-03-22,1.752780296910495
2022-03-23,1.7473671272973799
2022-03-24,1.7488351602292405
2022-03-25,1.7447401675213474
2022-03-28,1.7442596713440348
2022-03-29,1.7502024765245177
2022-03-30,1.7485412616618168
2022-03-31,1.7487992462030393
2022-04-01,1.751579771424278
2022-04-06,1.751173439292988
2022-04-07,1.740343090550992
2022-04-08,1.746345449496157
2022-04-11,1.7316572372053245
2022-04-12,1.729454062058507
2022-04-13,1.7334949749030104
2022-04-14,1.7415084346912582
2022-04-15,1.742228878627745
2022-04-18,1.723915391507213
2022-04-19,1.7186590526425498
2022-04-20,1.7002031872109717
2022-04-21,1.696061942982081
2022-04-22,1.700891193271467
2022-04-25,1.6886686508190158
2022-04-26,1.6907658583439578
2022-04-27,1.6962844791318732
2022-04-28,1.6965436329085348
2022-04-29,1.7134364309438186
2022-05-05,1.7034713843150397
2022-05-06,1.6867968540410214
2022-05-09,1.6794176435317993
2022-05-10,1.6862361952291178
2022-05-11,1.6892901531817148
2022-05-12,1.6888512771199737
2022-05-13,1.696727817469932
2022-05-16,1.6937758700866863
2022-05-17,1.6992704551801832
2022-05-18,1.6967270302419255
2022-05-19,1.7011539782819043
2022-05-20,1.7092867315742317
2022-05-23,1.7033922515166116
2022-05-24,1.6950436555238118
2022-05-25,1.6999439242027377
2022-05-26,1.7004071094617716
2022-05-27,1.7015043363040423
2022-05-30,1.6994572864038113
2022-05-31,1.7031389581156962
2022-06-01,1.69821942343504
2022-06-02,1.7017112493758022
2022-06-06,1.7206900286052929
2022-06-07,1.716822551782709
2022-06-08,1.7321607466732583
2022-06-09,1.7120608755938795
2022-06-10,1.7320116024980219
2022-06-13,1.7119718690294834
2022-06-14,1.7250108544285674
2022-06-15,1.7361353721147907
2022-06-16,1.7256989457033194
2022-06-17,1.7379550902000398
2022-06-20,1.743885326865994
2022-06-21,1.7464305617450393
2022-06-22,1.7281627131872486
2022-06-23,1.7484552203107746
2022-06-24,1.7716435113750886
2022-06-27,1.7869608035629982
2022-06-28,1.8016489785295677
2022-06-29,1.773853564979257
2022-06-30,1.7999257651340776
2022-07-01,1.7922317991304553
2022-07-04,1.817477443798026
2022-07-05,1.814555750338074
2022-07-06,1.7834886036417057
2022-07-07,1.7857132201221675
2022-07-08,1.7863571659343864
2022-07-11,1.7720684159049884
2022-07-12,1.7734676282118935
2022-07-13,1.7669492923080607
2022-07-14,1.7652289758567492
2022-07-15,1.7552774550785555
2022-07-18,1.7571827123714114
2022-07-19,1.75518020576479
2022-07-20,1.7532730323850696
2022-07-21,1.7527576697230622
2022-07-22,1.7529553180816988
2022-07-25,1.7538422064498769
2022-07-26,1.7506179474180041
2022-07-27,1.7486005559169555
2022-07-28,1.7473294252312106
2022-07-29,1.747284114021576
2022-08-01,1.7469198383357014
2022-08-02,1.7457744004335882
2022-08-03,1.744542392527635
2022-08-04,1.7469654260040934
2022-08-05,1.7468920107252117
2022-08-08,1.7482975272631245
2022-08-09,1.748091381185148
2022-08-10,1.7462684473607077
2022-08-11,1.7514895126197592
2022-08-12,1.7506101718173999
2022-08-15,1.7443721676572594
2022-08-16,1.7435509062414238
2022-08-17,1.748170356308227
2022-08-18,1.7415361481319243
2022-08-19,1.7440938745040633
2022-08-22,1.7501246107329462
2022-08-23,1.7465859175266931
2022-08-24,1.7399911266459829
2022-08-25,1.7477754572956081
2022-08-26,1.7460562246862183
2022-08-29,1.742421799619001
2022-08-30,1.736032312512093
2022-08-31,1.7369808786629775
2022-09-01,1.7342551992447484
2022-09-02,1.7287821904934728
2022-09-05,1.73421221577941
2022-09-06,1.7381477851274536
2022-09-07,1.7318560046104643
2022-09-08,1.734870545700873
2022-09-09,1.7516485810257045
2022-09-13,1.7539789677718491
2022-09-14,1.7461406484378263
2022-09-15,1.751399211281205
2022-09-16,1.7269235721320135
2022-09-19,1.7303494609279184
2022-09-20,1.7219524168548417
2022-09-21,1.7164185753565115
2022-09-22,1.7111014344954996
2022-09-23,1.7106071126062985
2022-09-26,1.7085755952257937
2022-09-27,1.7119378613680327
2022-09-28,1.70903760954625
2022-09-29,1.7061408960140205
2022-09-30,1.7049636817240392
2022-10-10,1.700508139465742
2022-10-11,1.6995647196045631
2022-10-12,1.6986583950181957
2022-10-13,1.6978482848919645
2022-10-14,1.698446135655394
2022-10-17,1.6978883325596976
2022-10-18,1.6974345985717683
2022-10-19,1.694239299878887
2022-10-20,1.6955048764834908
2022-10-21,1.6968514782399755
2022-10-24,1.6939367227323665
2022-10-25,1.689863262850433
2022-10-26,1.6915929329839214
2022-10-27,1.691739959438673
2022-10-28,1.6901999572198898
2022-10-31,1.6920453871109544
2022-11-01,1.6953381441708786
2022-11-02,1.6979509495882659
2022-11-03,1.6974885950680274
2022-11-04,1.703373490114194
2022-11-07,1.7130702139968006
2022-11-08,1.7100004105277287
2022-11-09,1.7096553486719666
2022-11-10,1.701076254874017
2022-11-11,1.713260878156164
2022-11-14,1.7145160244351256
2022-11-15,1.7277408082391956
2022-11-16,1.7182090957767522
2022-11-17,1.7100181247656365
2022-11-18,1.706866502181797
2022-11-21,1.695361383250218
2022-11-22,1.6962608155398342
2022-11-23,1.692015260357779
2022-11-24,1.6890903167693514
2022-11-25,1.698918103220377
2022-11-28,1.6821264009763892
2022-11-29,1.7137316093018689
2022-11-30,1.7098351548040909
2022-12-01,1.7165643953565142
2022-12-02,1.7032801256735246
2022-12-05,1.7301053745694415
2022-12-06,1.7340688454538433
2022-12-07,1.7228254859840537
2022-12-08,1.7227751475087616
2022-12-09,1.7486525892435834
2022-12-12,1.7246470933263731
2022-12-13,1.7261895202106907
2022-12-14,1.735026054708322
2022-12-15,1.729020051803025
2022-12-16,1.7331963398136918
2022-12-19,1.7069145575743632
2022-12-20,1.6854251057220724
2022-12-21,1.6881547964147499
2022-12-22,1.688681790188143
2022-12-23,1.6892148666795814
2022-12-26,1.6837694403249714
2022-12-27,1.6889234834524203
2022-12-28,1.688318877638295
2022-12-29,1.6856788977925492
2022-12-30,1.685925527311616
2023-01-03,1.684799886491181
2023-01-04,1.6871025034599316
2023-01-05,1.6923182193369155
2023-01-06,1.692868241387316
2023-01-09,1.6963159947861308
2023-01-10,1.6949673278441368
2023-01-11,1.6959323988267103
2023-01-12,1.6939515912566225
2023-01-13,1.707684317288905
2023-01-16,1.7210157714558993
2023-01-17,1.7145440675147323
2023-01-18,1.7080564390648938
2023-01-19,1.7212480789098576
2023-01-20,1.7260819512634844
2023-01-30,1.7242419879285942
2023-01-31,1.710420211542938
2023-02-01,1.7256728267637607
2023-02-02,1.7156855603709051
2023-02-03,1.7024580492389632
2023-02-06,1.6854549828528302
2023-02-07,1.6844445882158972
2023-02-08,1.6836760676711477
2023-02-09,1.688657361520682
2023-02-10,1.6841901668842028
2023-02-13,1.6881750334674215
2023-02-14,1.6905338764722668
2023-02-15,1.6885894343122683
2023-02-16,1.6867022714559334
2023-02-17,1.6844153044816395
2023-02-20,1.6955496327971744
2023-02-21,1.6987083536576246
2023-02-22,1.6959711667693982
2023-02-23,1.6978292960127759
2023-02-24,1.6898595585442266
2023-02-27,1.6866974926545806
2023-02-28,1.6913340063410602
2023-03-01,1.7028372551611348
2023-03-02,1.703435255698717
2023-03-03,1.7080696594151707
2023-03-06,1.7045637002983642
2023-03-07,1.699549530589608
2023-03-08,1.6991011178585176
2023-03-09,1.6976230951914262
2023-03-10,1.6908903890911908
2023-03-13,1.704541039157507
2023-03-14,1.7018837384323318
2023-03-15,1.7063964525457023
2023-03-16,1.7021924968098932
2023-03-17,1.710548166775131
2023-03-20,1.7095392398899247
2023-03-21,1.7079108174749673
2023-03-22,1.7115882698709914
2023-03-23,1.7150430502018748
2023-03-24,1.7089940150897818
2023-03-27,1.7006511684374712
2023-03-28,1.6987902792872593
2023-03-29,1.7008127157954147
2023-03-30,1.7003731206023251
2023-03-31,1.700996292763539
2023-04-03,1.697969285326071
2023-04-04,1.7064211231939852
2023-04-06,1.7117291176876828
2023-04-07,1.7170506618825219
2023-04-10,1.720459918439223
2023-04-11,1.723236557169085
2023-04-12,1.7283502164090503
2023-04-13,1.7173040567208457
2023-04-14,1.7230520844308934
2023-04-17,1.7360681761644985
2023-04-18,1.7389633867225087
2023-04-19,1.727527476752935
2023-04-20,1.7264708904003012
2023-04-21,1.7034374528827119
2023-04-24,1.7012860757820154
2023-04-25,1.7006469618031512
2023-04-26,1.6977157291397755
2023-04-27,1.7034772777955787
2023-04-28,1.7043083496299856
2023-05-04,1.7047285483359034
2023-05-05,1.699506872876816
2023-05-08,1.7108271785084876
2023-05-09,1.7051187349341983
2023-05-10,1.6980024241412424
2023-05-11,1.698006347884085
2023-05-12,1.6937704647441647
2023-05-15,1.6993378546294917
2023-05-16,1.6982395581543097
2023-05-17,1.6949242745830928
2023-05-18,1.6929845649315582
2023-05-19,1.689113476805747
2023-05-22,1.692861362006202
2023-05-23,1.6882271374520033
2023-05-24,1.685270678432044
2023-05-25,1.6831559204465207
2023-05-26,1.6822367034724373
2023-05-29,1.6821100230945083
2023-05-30,1.6814415820620745
2023-05-31,1.6802777080551583
2023-06-01,1.6800586894763296
2023-06-02,1.680154277949221
2023-06-05,1.6790742726320915
2023-06-06,1.674322893874136
2023-06-07,1.6742788327453497
2023-06-08,1.6757879753491995
2023-06-09,1.676062134704508
2023-06-12,1.6767451142696634
2023-06-13,1.6758273004993296
2023-06-14,1.6786549633163328
2023-06-15,1.6841633371572824
2023-06-16,1.687249190817472
2023-06-19,1.6803286777225876
2023-06-20,1.6817686220458556
2023-06-21,1.675943499983021
2023-06-26,1.6709061128232914
2023-06-27,1.6765995108512401
2023-06-28,1.675071447385605
2023-06-29,1.6716655726741363
2023-06-30,1.6745272788372583
2023-07-03,1.6789930870494196
2023-07-04,1.6824388583518648
2023-07-05,1.6815758496991045
2023-07-06,1.6787146897772025
2023-07-07,1.6779285030115778
2023-07-10,1.6770884193201985
2023-07-11,1.681288695646983
2023-07-12,1.6802097441420705
2023-07-13,1.6851315765680106
2023-07-14,1.6840115425490507
2023-07-17,1.6776631472856487
2023-07-18,1.6781155290345047
2023-07-19,1.6782396732502867
2023-07-20,1.6747458211366486
2023-07-21,1.6741607307392585
2023-07-24,1.6696293815930112
2023-07-25,1.6799371668745782
2023-07-26,1.6789290282582803
2023-07-27,1.6770960787765403
2023-07-28,1.7107397171754513
2023-07-31,1.7261212589540313
2023-08-01,1.7148432071878281
2023-08-02,1.7085109256064348
2023-08-03,1.7171236708970836
2023-08-04,1.7217817295097326
2023-08-07,1.707784436798309
2023-08-08,1.7005101611252098
2023-08-09,1.697513849245937
2023-08-10,1.6964800262112316
2023-08-11,1.6696217063645773
2023-08-14,1.664707827575324
2023-08-15,1.6632223704328741
2023-08-16,1.6633289211649607
2023-08-17,1.6635773387619466
2023-08-18,1.6633188838925774
2023-08-21,1.6591419878969875
2023-08-22,1.659451884925984
2023-08-23,1.658670428355459
2023-08-24,1.6582605408319615
2023-08-25,1.6591550758760292
2023-08-28,1.65906494958647
2023-08-29,1.65856975176726
2023-08-30,1.6584652283431298
2023-08-31,1.6568486561029327
2023-09-01,1.659030222071712
2023-09-04,1.6649921151024065
2023-09-05,1.661072968560843
2023-09-06,1.6613368599837801
2023-09-07,1.6594782397149552
2023-09-08,1.6580050249630853
2023-09-11,1.6570070931759617
2023-09-12,1.6555841886847917
2023-09-13,1.6539469074021622
2023-09-14,1.6557861355048018
2023-09-15,1.6551678271346566
2023-09-18,1.6584161872330332
2023-09-19,1.6580187168266067
2023-09-20,1.6558228047011698
2023-09-21,1.651610540494446
2023-09-22,1.654211858866415
2023-09-25,1.653867352241813
2023-09-26,1.6522367146895813
2023-09-27,1.6513156084655956
2023-09-28,1.650771733139346
2023-10-09,1.6519903925109172
2023-10-10,1.6523950601903956
2023-10-11,1.654396252716239
2023-10-12,1.6549118158689704
2023-10-13,1.654859955702081
2023-10-16,1.6513187442863022
2023-10-17,1.6541263292932236
2023-10-18,1.655586633804494
2023-10-19,1.648801410849327
2023-10-20,1.646314651802718
2023-10-23,1.6486636851089096
2023-10-24,1.6473818346491051
2023-10-25,1.6476098037047546
2023-10-26,1.647373983609477
2023-10-27,1.6481744651234844
2023-10-30,1.6534342580620514
2023-10-31,1.6520091981955844
2023-11-01,1.6510483451349192
2023-11-02,1.648491661975869
2023-11-03,1.6501008167821485
2023-11-06,1.6548414915965755
2023-11-07,1.6530234168954054
2023-11-08,1.6511187057496954
2023-11-09,1.6476830782961642
2023-11-10,1.6464337712068957
2023-11-13,1.6426205728438035
2023-11-14,1.642930048194459
2023-11-15,1.645428600649064
2023-11-16,1.6413297873918204
2023-11-17,1.640145770629902
2023-11-20,1.6382452436957509
2023-11-21,1.6386816017567827
2023-11-22,1.6372210072723914
2023-11-23,1.6370490963656792
2023-11-24,1.6377605484177318
2023-11-27,1.637418627430384
2023-11-28,1.637768017632764
2023-11-29,1.6384709755414564
2023-11-30,1.640797753989043
2023-12-01,1.6398427307553212
2023-12-04,1.6418775283936708
2023-12-05,1.6365583264439862
2023-12-06,1.6357105710000726
2023-12-07,1.634971233960004
2023-12-08,1.637467766009418
2023-12-11,1.6387683461992444
2023-12-12,1.6387133190433523
2023-12-13,1.6376438796788209
2023-12-14,1.6371032674232913
2023-12-15,1.6362111859102777
2023-12-18,1.636823107827047
2023-12-19,1.6361682062443548
2023-12-20,1.6313871477408077
2023-12-21,1.6309457098667204
2023-12-22,1.6304231453398816
2023-12-25,1.6314827797278477
2023-12-26,1.6310275740713351
2023-12-27,1.6314325070063305
2023-12-28,1.6315893079552042
2023-12-29,1.6414703112927471
2024-01-02,1.634249134495149
2024-01-03,1.6317557145808257
2024-01-04,1.630937722137347
2024-01-05,1.6295059572379846
2024-01-08,1.6216988014710787
2024-01-09,1.6255895700937537
2024-01-10,1.6237211243497263
2024-01-11,1.6213530989238503
2024-01-12,1.6242181516862526
2024-01-15,1.6263808080291848
2024-01-16,1.6307274721680678
2024-01-17,1.621775109554834
2024-01-18,1.6306489217605606
2024-01-19,1.6264000584583418
2024-01-22,1.623178978717381
2024-01-23,1.623408497421101
2024-01-24,1.626700557731267
2024-01-25,1.6337126416050163
2024-01-26,1.6376951602526086
2024-01-29,1.6358643955946508
2024-01-30,1.6278340196663121
2024-01-31,1.627531885004414
2024-02-01,1.6242942900618331
2024-02-02,1.6228914228055988
2024-02-05,1.6364627722663307
2024-02-06,1.6454545911473502
2024-02-07,1.6577935239206703
2024-02-08,1.6566945945966711
2024-02-19,1.6651378880257035
2024-02-20,1.6700005267302651
2024-02-21,1.6841207521954151
2024-02-22,1.6867185020582374
2024-02-23,1.6816569261027978
2024-02-26,1.6672496280835802
2024-02-27,1.6750187346188674
2024-02-28,1.6591460967554579
2024-02-29,1.679339445735172
2024-03-01,1.687332874865385
2024-03-04,1.6917907561685999
2024-03-05,1.7055111484300494
2024-03-06,1.698569534178093
2024-03-07,1.693361095469849
2024-03-08,1.6920254671740869
2024-03-11,1.709241528969456
2024-03-12,1.7104703465588837
2024-03-13,1.7061613075928732
2024-03-14,1.7117074737212556
2024-03-15,1.7126137708217581
2024-03-18,1.7246876205658925
2024-03-19,1.7173899797144607
2024-03-20,1.717288881404725
2024-03-21,1.7193477374326382
2024-03-22,1.7109500524598724
2024-03-25,1.709426550368416
2024-03-26,1.7132364701192746
2024-03-27,1.7068515659810728
2024-03-28,1.707760877809278
2024-03-29,1.7115834048880576
2024-04-01,1.720849360247122
2024-04-02,1.7182018755029251
2024-04-03,1.7201856692479252
2024-04-08,1.7140810612408104
2024-04-09,1.7122713545505024
2024-04-10,1.7159734222826666
2024-04-11,1.7183208240200931
2024-04-12,1.71370747806562
2024-04-15,1.7226337406731593
2024-04-16,1.7235484685308633
2024-04-17,1.728625474435419
2024-04-18,1.7307191244030604
2024-04-19,1.7312979614080564
2024-04-22,1.718557426886193
2024-04-23,1.7126599896214136
2024-04-24,1.7133573654087169
2024-04-25,1.7261396532035957
2024-04-26,1.7283976615668826
2024-04-29,1.7366014969682875
2024-04-30,1.7387888726263616
2024-05-06,1.7559702569818871
2024-05-07,1.7556026132444669
2024-05-08,1.7436408805857941
2024-05-09,1.7556089761480846
2024-05-10,1.760361518970037
2024-05-13,1.7613421989775233
2024-05-14,1.7636478773430326
2024-05-15,1.7550801169602472
2024-05-16,1.7636508743589339
2024-05-17,1.775165134118392
2024-05-20,1.7741130301276629
2024-05-21,1.7678741715865725
2024-05-22,1.7677341077635973
2024-05-23,1.7575510618463006
2024-05-24,1.7413070472042098
2024-05-27,1.7454302642371835
2024-05-28,1.7391775977995612
2024-05-29,1.7427788051093578
2024-05-30,1.7391436406662812
2024-05-31,1.733048471564025
2024-06-03,1.7357032223601603
2024-06-04,1.7366662271160314
2024-06-05,1.737433876116571
2024-06-06,1.7395473498894958
2024-06-07,1.7374497013831545
2024-06-11,1.7380302058798605
2024-06-12,1.740657782050083
2024-06-13,1.7431042547130173
2024-06-14,1.7430041393119957
2024-06-17,1.7463206601302859
2024-06-18,1.746812227516839
2024-06-19,1.7464722961790273
2024-06-20,1.7477186179424173
2024-06-21,1.7472732675993434
2024-06-24,1.7484258560487858
2024-06-25,1.7472361126239795
2024-06-26,1.7483815772990026
2024-06-27,1.7492052274164056
2024-06-28,1.7509423913459607
2024-07-01,1.7541184241183398
2024-07-02,1.7569920590929464
2024-07-03,1.7540188528446472
2024-07-04,1.7551866642143317
2024-07-05,1.750704738681945
2024-07-08,1.7552938834515999
2024-07-09,1.7645729188297619
2024-07-10,1.7604684776691366
2024-07-11,1.7656437115336658
2024-07-12,1.7657757627766266
2024-07-15,1.7685417924395477
2024-07-16,1.7747844720695467
2024-07-17,1.7725108544580168
2024-07-18,1.7728764445929908
2024-07-19,1.7755327511112384
2024-07-22,1.767821560206553
2024-07-23,1.7445727597174765
2024-07-24,1.7397385025865686
2024-07-25,1.740284647745705
2024-07-26,1.7358685525694115
2024-07-29,1.7323727558308808
2024-07-30,1.7267187816915825
2024-07-31,1.7334038114759946
2024-08-01,1.7384921463025218
2024-08-02,1.7373672889173917
2024-08-05,1.7338401586063357
2024-08-06,1.732643814854804
2024-08-07,1.7327098740250644
2024-08-08,1.731706791724613
2024-08-09,1.7297350817744777
2024-08-12,1.7309572329814824
2024-08-13,1.7310531623800802
2024-08-14,1.731087544865989
2024-08-15,1.7350918769959447
2024-08-16,1.7339956375427061
2024-08-19,1.732467978238178
2024-08-20,1.731123828154512
2024-08-21,1.7306967786818264
2024-08-22,1.730860977744039
2024-08-23,1.7327202847885474
2024-08-26,1.731186099001826
2024-08-27,1.7330300216651853
2024-08-28,1.727645651374662
2024-08-29,1.7228131451796167
2024-08-30,1.7242111596740175
2024-09-02,1.7164284345669305
2024-09-03,1.71957799127693
2024-09-04,1.717071362255852
2024-09-05,1.7171543750667162
2024-09-06,1.7110641598973626
2024-09-09,1.7043495658722572
2024-09-10,1.7030054994079096
2024-09-11,1.708559496422566
2024-09-12,1.7071656744812418
2024-09-13,1.7044393779139242
2024-09-18,1.7071726521967687
2024-09-19,1.7100151020998093
2024-09-20,1.7073654946349934
2024-09-23,1.7082038516124118
2024-09-24,1.7205589193736202
2024-09-25,1.7333244024947896
2024-09-26,1.775956863056115
2024-09-27,1.8525324541005128
2024-09-30,1.9996302677278226
2024-10-08,2.1074122653212317
2024-10-09,1.9481099873063124
2024-10-10,1.9811997795616225
2024-10-11,1.927523371408518
2024-10-14,1.9638801558876777
2024-10-15,1.9112712865991264
2024-10-16,1.8877191657153674
2024-10-17,1.8507705447312874
2024-10-18,1.9090841837693235
2024-10-21,1.9192062452545693
2024-10-22,1.9390308104010698
2024-10-23,1.9504129911071253
2024-10-24,1.926570943339509
2024-10-25,1.9447928581948428
2024-10-28,1.9521695416367804
2024-10-29,1.9368924788930344
2024-10-30,1.929207226950494
2024-10-31,1.9378908994503856
2024-11-01,1.935566094603279
2024-11-04,1.9497965781035278
2024-11-05,1.9752061668424106
2024-11-06,1.9663645167267092
2024-11-07,1.9998096414076383
2024-11-08,1.9865219386836894
2024-11-11,1.9894108976789433
2024-11-12,1.9821843389621947
2024-11-13,1.9809875635028442
2024-11-14,1.9593105917841631
2024-11-15,1.939282649689184
2024-11-18,1.932029899001668
2024-11-19,1.9350088363673725
2024-11-20,1.9349786399546527
2024-11-21,1.9351589469501724
2024-11-22,1.9273317260979124
2024-11-25,1.9281706677208312
2024-11-26,1.9274544498805124
2024-11-27,1.927820188655097
2024-11-28,1.9277292149725256
2024-11-29,1.9273646843175345
2024-12-02,1.927181135823848
2024-12-03,1.9279164904134163
2024-12-04,1.928218364022755
2024-12-05,1.9271776827342726
2024-12-06,1.9280763762493687
2024-12-09,1.9291449182677667
2024-12-10,1.9290328461805057
2024-12-11,1.9294028001210446
2024-12-12,1.9318928711936894
2024-12-13,1.923747892918181
2024-12-16,1.927780362016109
2024-12-17,1.9279624932471795
2024-12-18,1.9311298219030142
2024-12-19,1.9281604565200636
2024-12-20,1.923907834018754
2024-12-23,1.9313797664958339
2024-12-24,1.9378543019796943
2024-12-25,1.9390559966861634
2024-12-26,1.9367211582195105
2024-12-27,1.9365397746556854
2024-12-30,1.938557492921609
2024-12-31,1.9347290118481704
2025-01-02,1.9233683342162577
2025-01-03,1.920756060907926
2025-01-06,1.9214304864033156
2025-01-07,1.9214817542871105
2025-01-08,1.9269841774771905
2025-01-09,1.9276804223526622
2025-01-10,1.9235218806475751
2025-01-13,1.91794883890829
2025-01-14,1.9194453085667436
2025-01-15,1.9164458866533909
2025-01-16,1.920115169925662
2025-01-17,1.9199884625202805
2025-01-20,1.9192564584038498
2025-01-21,1.9192455752295572
2025-01-22,1.9173110673069382
2025-01-23,1.9174594616475273
2025-01-24,1.9188284390294892
2025-01-27,1.9204337884703226
2025-02-05,1.9171175623203334
2025-02-06,1.918535745990847
2025-02-07,1.9244025555503566
2025-02-10,1.9289302778927397
2025-02-11,1.9293786535316724
2025-02-12,1.9376609162416063
2025-02-13,1.9341913862067834
2025-02-14,1.94427005457731
2025-02-17,1.93993260983169
2025-02-18,1.932461809516314
2025-02-19,1.9413838920600752
2025-02-20,1.9394345592869422
2025-02-21,1.9494795392110569
2025-02-24,1.946417404889419
2025-02-25,1.933969078730764
2025-02-26,1.9435990958063698
2025-02-27,1.9489287015874948
2025-02-28,1.9256740108620394
2025-03-03,1.9253153294164964
2025-03-04,1.9222636299857754
2025-03-05,1.9248561733849336
2025-03-06,1.9312774336195102
2025-03-07,1.9320123843590604
2025-03-10,1.9282528644234223
2025-03-11,1.9318396077777185
2025-03-12,1.9244380186004595
2025-03-13,1.9231706488131506
2025-03-14,1.9397396463324508
2025-03-17,1.9428547461202785
2025-03-18,1.944041958490963
2025-03-19,1.9481494450350356
2025-03-20,1.9326563901570473
2025-03-21,1.9179247568941153
2025-03-24,1.9244840720513543
2025-03-25,1.9237254641304808
2025-03-26,1.9236822633862802
2025-03-27,1.925038816783788
2025-03-28,1.9219887338830937
2025-03-31,1.9183372893462298
2025-04-01,1.9163305352416822
2025-04-02,1.9134811890707093
2025-04-03,1.9157835872567652
2025-04-07,1.9010062575259337
2025-04-08,1.9079378954204873
2025-04-09,1.9088976694874475
2025-04-10,1.9139209042059488
2025-04-11,1.9070723103391345
2025-04-14,1.907793237723831
2025-04-15,1.9030059523910494
2025-04-16,1.910404361231323
2025-04-17,1.9085414820143491
2025-04-18,1.9058382983183095
2025-04-21,1.9024967162745001
2025-04-22,1.9031860829341392
2025-04-23,1.8969338571507954
2025-04-24,1.9000088493270537
2025-04-25,1.89763897932057
2025-04-28,1.8957609063708427
2025-04-29,1.8947142343625223
2025-04-30,1.8913820013557698
2025-05-06,1.8904965581692197
2025-05-07,1.8898401110292302
2025-05-08,1.8892730259308141
2025-05-09,1.890198694026252
2025-05-12,1.901538214708714
2025-05-13,1.9049236247218404
2025-05-14,1.9132311763776721
2025-05-15,1.9010964963044312
2025-05-16,1.8927192426672192
2025-05-19,1.8873510194116583
2025-05-20,1.896038809154674
2025-05-21,1.9032429294050035
2025-05-22,1.904730908013326
2025-05-23,1.8940578939788215
2025-05-26,1.8851128797009291
2025-05-27,1.8798369969795086
2025-05-28,1.883571949459828
2025-05-29,1.8806636810118489
2025-05-30,1.8761612020921812
2025-06-03,1.8787516640966453
2025-06-04,1.8782451282028862
2025-06-05,1.8750586259944033
2025-06-06,1.8744009300808644
2025-06-09,1.8799413592378909
2025-06-10,1.879264031895259
2025-06-11,1.8851391491582747
2025-06-12,1.8867180747076602
2025-06-13,1.884831018160179
2025-06-16,1.8837257558951763
2025-06-17,1.8820841297380804
2025-06-18,1.8790874434330929
2025-06-19,1.87407646418884
2025-06-20,1.8757505333439228
2025-06-23,1.8763224751164078
2025-06-24,1.8791717602715379
2025-06-25,1.883206723000894
2025-06-26,1.8800793840362824
2025-06-27,1.879108137965205
2025-06-30,1.8823457270369266
2025-07-01,1.8811969320268804
2025-07-02,1.8899225777816373
2025-07-03,1.897664337583884
2025-07-04,1.9013531806830641
2025-07-07,1.8948153640564225
2025-07-08,1.9112077521656718
2025-07-09,1.908825558660766
2025-07-10,1.9182383756792396
2025-07-11,1.9154856363413288
2025-07-14,1.9192522397974323
2025-07-15,1.9149616800455453
2025-07-16,1.9111632102764358
2025-07-17,1.9199124822517741
2025-07-18,1.9251011118759351
2025-07-21,1.941425725512757
2025-07-22,1.9690951524292224
2025-07-23,1.962807612694645
2025-07-24,1.9749804357508025
2025-07-25,1.9546468515674873
2025-07-28,1.951557632261318
2025-07-29,1.952515314731799
2025-07-30,1.9588421751858434
2025-07-31,1.9212558530772983
2025-08-01,1.9195855987644315
2025-08-04,1.9160462767578201
2025-08-05,1.9196116686358013
2025-08-06,1.919512395639816
2025-08-07,1.918177847091264
2025-08-08,1.9169010259263102
2025-08-11,1.9184451698886578
2025-08-12,1.9228612248280137
2025-08-13,1.9278203402898269
2025-08-14,1.92387064859498
2025-08-15,1.9331226306646894
2025-08-18,1.9431871966303091
2025-08-19,1.9308865309123298
2025-08-20,1.9397413513691824
2025-08-21,1.9450072317084783
2025-08-22,1.9549001835286404
2025-08-25,1.9712796875777505
2025-08-26,1.9798252920452306
2025-08-27,1.9521361032720719
2025-08-28,1.9622446775233826
2025-08-29,1.9698014102441368
2025-09-01,1.977211405051711
2025-09-02,1.9696362015811097
2025-09-03,1.9576256133856103
2025-09-04,1.9388522997547883
2025-09-05,1.971074331878239
2025-09-08,1.9809804606021664
2025-09-09,1.9757431351442383
2025-09-10,1.9677494997825793
2025-09-11,1.9870712152784376
2025-09-12,1.9817297185532108
2025-09-15,1.988988328631591
2025-09-16,1.984071289640692
2025-09-17,1.9896911447796595
2025-09-18,1.974847296057826
2025-09-19,1.9788567002353408
2025-09-22,1.9803641095617308
2025-09-23,1.9801339624412424
2025-09-24,1.9859333302540656
2025-09-25,1.9923490326624447
2025-09-26,1.98863096755201
2025-09-29,1.9955003044107729
2025-09-30,2.00254051403643
2025-10-09,2.0104854398087175
2025-10-10,1.9964236497969097
2025-10-13,1.9929049266386543
2025-10-14,1.9944430865256668
2025-10-15,1.99996303446239
2025-10-16,2.0025325116121535
2025-10-17,1.9939827676438067
2025-10-20,1.9882852312791122
2025-10-21,1.9906839000268761
2025-10-22,1.9932942159904279
2025-10-23,1.9957263431208068
2025-10-24,1.9923754660198338
2025-10-27,1.9996560831812613
2025-10-28,1.990301033811647
2025-10-29,2.003475099723869
2025-10-30,2.006624371821398
2025-10-31,1.999284297442209
2025-11-03,2.0029636794384094
2025-11-04,1.9967200743610154
2025-11-05,1.9996425517149505
2025-11-06,2.00086960031935
2025-11-07,2.009108532037774
2025-11-10,2.0253250672517753
2025-11-11,2.024860169806233
2025-11-12,2.0195529382675668
2025-11-13,2.0248821495668308
2025-11-14,2.0188991440451742
2025-11-17,2.008198076114317
2025-11-18,2.0006248339202073
2025-11-19,2.0072191260291317
2025-11-20,1.9980736210254595
2025-11-21,1.9918744855262462
2025-11-24,1.9860919363354042
2025-11-25,1.9870734174594056
2025-11-26,1.9862934631689084
2025-11-27,1.9866124431361005
2025-11-28,1.9870899744791062
2025-12-01,1.987916816429373
2025-12-02,1.9901395301835183
2025-12-03,1.9894939705103631
2025-12-04,1.9888787671207069
2025-12-05,1.9888517173770726
2025-12-08,1.9886361455911543
2025-12-09,1.9833810356607833
2025-12-10,1.9817038016320199
2025-12-11,1.979784134469565
2025-12-12,1.982679288933732
2025-12-15,1.9839607851714585
2025-12-16,1.9821083520820446
2025-12-17,1.9852080207430116
2025-12-18,1.9833621439405984
2025-12-19,1.9859644455946979
2025-12-22,1.9866348900103328
2025-12-23,1.984507994294517
2025-12-24,1.9856720850505303
2025-12-25,1.9865371226763509
2025-12-26,1.9912018714890527
2025-12-29,1.9873893788626806
2025-12-30,1.9852587442017657
2025-12-31,1.9872075522410504
2026-01-05,1.9879416432121189
2026-01-06,2.0017056495956753
2026-01-07,1.991223827727929
2026-01-08,1.9862332517512227
2026-01-09,1.990252610286649
2026-01-12,1.9960135024705399
2026-01-13,1.9848786247733374
2026-01-14,1.9827235863440873
2026-01-15,1.9774872940614534
2026-01-16,1.972474383789618
2026-01-19,1.9664868044156363
2026-01-20,1.972480236281607
2026-01-21,1.9718221290610163
2026-01-22,1.9722328430476688
2026-01-23,1.9695090577640522
2026-01-26,1.9597609595482963
2026-01-27,1.9573202040019144
2026-01-28,1.9606811355347948
2026-01-29,1.9650129083580639
2026-01-30,1.9524596283512727
2026-02-02,1.948090441003526
2026-02-03,1.9530028459816677
2026-02-04,1.9620637199066837
2026-02-05,1.9634365396520135
2026-02-06,1.9597065926591495
2026-02-09,1.9602601769363603
2026-02-10,1.9588930833180305
2026-02-11,1.9583304835533015
2026-02-12,1.9549444687723945
2026-02-13,1.9458676789452585
2026-02-24,1.9446808282236583
2026-02-25,1.948431956322825
2026-02-26,1.939585440929204
2026-02-27,1.9385259193073296
2026-03-02,1.945439373966099
2026-03-03,1.9467968431610698
2026-03-04,1.9463306839535337
2026-03-05,1.943034416881841
2026-03-06,1.9423254847604083
2026-03-09,1.9478872958086457
2026-03-10,1.9417100879356348
2026-03-11,1.9462615305844768
2026-03-12,1.9480770872446063
2026-03-13,1.9469300235503586
2026-03-16,1.9512453419994404
2026-03-17,1.949281230840729
2026-03-18,1.9466259920053335
2026-03-19,1.9486237876721193
2026-03-20,1.9511385914569963
2026-03-23,1.9393131100147212
2026-03-24,1.9373222611445258
2026-03-25,1.9361783965332493
2026-03-26,1.936364114385455
2026-03-27,1.9394951448391955
2026-03-30,1.9397269808025788
2026-03-31,1.9383375258906765
2026-04-01,1.9379473890248997
2026-04-02,1.936738298841777
2026-04-03,1.931878339710762
2026-04-07,1.9306315327340624
2026-04-08,1.9307836786155317
2026-04-09,1.933941175494085
2026-04-10,1.9374424978370806
2026-04-13,1.9363825886014994
2026-04-14,1.9396721463754905
2026-04-15,1.9416590979767072
2026-04-16,1.9448515248032423
2026-04-17,1.9409548555895357
2026-04-20,1.9451011558649192
2026-04-21,1.9464224655615412
2026-04-22,1.9458917095268706
2026-04-23,1.944181462187629
2026-04-24,1.9407539009175747
2026-04-27,1.9404703812429478
2026-04-28,1.9395584626807056
2026-04-29,1.9434351669427963
2026-04-30,1.9446741573026889
2026-05-06,1.950915699769654
2026-05-07,1.9484609443545604
2026-05-08,1.9474791794544197
2026-05-11,1.9564264351824407
2026-05-12,1.951198381159424
2026-05-13,1.949792850522316
2026-05-14,1.9363929294938589
2026-05-15,1.9327196617494888
2026-05-18,1.926270093451667
2026-05-19,1.9261400972015152
2026-05-20,1.9241559350777184
2026-05-21,1.922794043120345
2026-05-22,1.9227832279966734
2026-05-25,1.9246986875055554
2026-05-26,1.9233617981344286
2026-05-27,1.9228311089825143
2026-05-28,1.9213530488569557
2026-05-29,1.9177776208418285
2026-06-01,1.917596150912274
2026-06-02,1.9175452143081335
2026-06-03,1.9177497455700019
2026-06-04,1.9168325208287094
2026-06-05,1.9168762088043563
2026-06-08,1.9195449422715596
2026-06-09,1.9169080430584144
2026-06-10,1.9159693893535659
2026-06-11,1.9171903130383139
2026-06-12,1.9155268246840926
2026-06-15,1.908950136809736
2026-06-16,1.9062119206817094
2026-06-17,1.9049330376006264
2026-06-18,1.899171834848308
2026-06-22,1.9029570421192248
2026-06-23,1.8991040780006239
2026-06-24,1.9035999621264195
2026-06-25,1.9077162011566808
2026-06-26,1.9017559863797169
2026-06-29,1.9019872455270392
2026-06-30,1.9040959846763394
2026-07-01,1.9085062611930501
2026-07-02,1.9044492463323608
2026-07-03,1.9078071918053074
2026-07-06,1.9110669385931525
2026-07-07,1.9050218912973325
2026-07-08,1.9011794307810048
2026-07-09,1.9059278413639587
2026-07-10,1.9054348613856154
2026-07-13,1.9048805936588968
2026-07-14,1.906733615668465
2026-07-15,1.918983880132868
2026-07-16,1.9190259898026052
2026-07-17,1.907758725664033
2026-07-20,1.9249401891369418
2026-07-21,1.9160854167867818
2026-07-22,1.924018326256294
2026-07-23,1.9152923284467593
2026-07-24,1.897838071758107
2026-07-27,1.899033823373806
2026-07-28,1.9121981894341225
2026-07-29,1.9297731856234115
2026-07-30,1.9647451289604818
2026-07-31,1.9556882941670113
2026-08-03,1.9467529566450115
2026-08-04,1.91810767685596
2026-08-05,1.9186296499393491
2026-08-06,1.905751100576907
2026-08-07,1.9111962393960737
2026-08-10,1.9190140359499497
2026-08-11,1.902714298378075
2026-08-12,1.9093926918227733
2026-08-13,1.8998868572239935
2026-08-14,1.8946372150700643
2026-08-17,1.894398026273053
2026-08-18,1.8939246064391928
2026-08-19,1.8897104494142007
2026-08-20,1.8906974174927729
2026-08-21,1.8871522420712021
2026-08-24,1.8873295076686376
2026-08-25,1.8866671747384491
2026-08-26,1.8874987400491456
2026-08-27,1.8871406398614263
2026-08-28,1.8896464700291267
2026-08-31,1.89094319168442
2026-09-01,1.8939524682671087
2026-09-02,1.8888031003900856
2026-09-03,1.8898096095344108
2026-09-04,1.8953896130174686
2026-09-07,1.8856574966409099
2026-09-08,1.888545793323469
2026-09-09,1.8866232311888853
2026-09-10,1.8851229611656037
2026-09-11,1.8813817922580012
2026-09-14,1.880288905823039
2026-09-15,1.8758410426720586
2026-09-16,1.8732366742437638
2026-09-17,1.8729844234313133
2026-09-18,1.8725108598388582
2026-09-21,1.876086228639024
2026-09-22,1.8761470440781598
2026-09-23,1.8756164396058816
