date,equity
2018-10-16,1.0
2018-10-17,1.0
2018-10-18,1.0
2018-10-19,1.0
2018-10-22,1.0
2018-10-23,1.0
2018-10-24,1.0
2018-10-25,1.0
2018-10-26,1.0
2018-10-29,1.0
2018-10-30,1.0
2018-10-31,1.0
2018-11-01,1.0
2018-11-02,1.0
2018-11-05,1.0
2018-11-06,1.0
2018-11-07,1.0
2018-11-08,1.0
2018-11-09,1.0
2018-11-12,1.0
2018-11-13,0.9999736842105263
2018-11-14,0.9997513653755901
2018-11-15,1.000366812454008
2018-11-16,1.0029416684983683
2018-11-19,1.004179133911367
2018-11-20,0.9967714678874346
2018-11-21,0.996803665312125
2018-11-22,0.9965457646944517
2018-11-23,0.9882975429116883
2018-11-26,0.9890671277475582
2018-11-27,0.9909391467968695
2018-11-28,0.993532720928116
2018-11-29,0.9908627530894238
2018-11-30,0.9902604971982313
2018-12-03,0.9994136642736464
2018-12-04,0.9981203675848327
2018-12-05,1.0033703436590398
2018-12-06,0.9887293228660339
2018-12-07,0.9887118256387093
2018-12-10,0.9874465622482141
2018-12-11,0.9861604285154028
2018-12-12,0.9861975070533657
2018-12-13,0.991336727997806
2018-12-14,0.9789738030477417
2018-12-17,0.9761990517979804
2018-12-18,0.9757941253793955
2018-12-19,0.970820202303776
2018-12-20,0.9680061319144252
2018-12-21,0.9674549412798393
2018-12-24,0.967490939907582
2018-12-25,0.9670410899960445
2018-12-26,0.9675111424271328
2018-12-27,0.9675872397851182
2018-12-28,0.9678061619151468
2019-01-02,0.9664273831323414
2019-01-03,0.9666180069933688
2019-01-04,0.9663017481695804
2019-01-07,0.9661737598654063
2019-01-08,0.9662315894719061
2019-01-09,0.9656723154218579
2019-01-10,0.9646781039580817
2019-01-11,0.9652895271008719
2019-01-14,0.9643933987880893
2019-01-15,0.9676309370772096
2019-01-16,0.967137310502891
2019-01-17,0.965614283330763
2019-01-18,0.9749715374356859
2019-01-21,0.9750996914162037
2019-01-22,0.9651331100074783
2019-01-23,0.968535378941957
2019-01-24,0.9749646965092641
2019-01-25,0.979121228759343
2019-01-28,0.979797443917234
2019-01-29,0.9845762685012024
2019-01-30,0.9810835020745432
2019-01-31,0.9934391218076588
2019-02-01,1.004386530060363
2019-02-11,1.0195802855371192
2019-02-12,1.0249817454270524
2019-02-13,1.0365905279667422
2019-02-14,1.0442044914374986
2019-02-15,1.0259420157222972
2019-02-18,1.0571300968926138
2019-02-19,1.0542959210439322
2019-02-20,1.0612132484850425
2019-02-21,1.0636095150066913
2019-02-22,1.0825297084825694
2019-02-25,1.122838924014278
2019-02-26,1.1124144857342961
2019-02-27,1.0993494267372845
2019-02-28,1.109041963551809
2019-03-01,1.131970538417685
2019-03-04,1.145820513512807
2019-03-05,1.1519707227352296
2019-03-06,1.1513025759500795
2019-03-07,1.127815139109529
2019-03-08,1.0979360135825706
2019-03-11,1.113739328061275
2019-03-12,1.1166826617786676
2019-03-13,1.1075786691268767
2019-03-14,1.10588220087981
2019-03-15,1.117455971946932
2019-03-18,1.1361624892075017
2019-03-19,1.1311823093344056
2019-03-20,1.1276730577396195
2019-03-21,1.1235098873549167
2019-03-22,1.1230683973835112
2019-03-25,1.1066481670012678
2019-03-26,1.1050762914061907
2019-03-27,1.1157773647086562
2019-03-28,1.1170172417618012
2019-03-29,1.1338568509204245
2019-04-01,1.1500091336440579
2019-04-02,1.1483546226845924
2019-04-03,1.1564175031725206
2019-04-04,1.1617568990124987
2019-04-08,1.1614955454779017
2019-04-09,1.1650148185014704
2019-04-10,1.1742435630606372
2019-04-11,1.1502286405987707
2019-04-12,1.14653007079609
2019-04-15,1.146887972489657
2019-04-16,1.166161505853566
2019-04-17,1.1729241249556837
2019-04-18,1.1698044103978602
2019-04-19,1.178234259218438
2019-04-22,1.1620511724485483
2019-04-23,1.1625241727223696
2019-04-24,1.166790850294388
2019-04-25,1.157382949329609
2019-04-26,1.1441436475269577
2019-04-29,1.1521788815953737
2019-04-30,1.1501850464569339
2019-05-06,1.130828233031232
2019-05-07,1.1355491300512959
2019-05-08,1.1338631496955915
2019-05-09,1.1325691220439025
2019-05-10,1.137255961231191
2019-05-13,1.1364433186184737
2019-05-14,1.1360356264043283
2019-05-15,1.138918022352439
2019-05-16,1.1394394070994922
2019-05-17,1.1346184585149297
2019-05-20,1.1308428049216828
2019-05-21,1.1327200335601362
2019-05-22,1.1326517590535679
2019-05-23,1.1293572275999393
2019-05-24,1.128655893960814
2019-05-27,1.1302594844391014
2019-05-28,1.1323238565411506
2019-05-29,1.1309114761698917
2019-05-30,1.1304495061819846
2019-05-31,1.1302646056873697
2019-06-03,1.131049971749735
2019-06-04,1.1281917847046725
2019-06-05,1.1299711342295344
2019-06-06,1.1255290756835477
2019-06-10,1.129995288579285
2019-06-11,1.1349236383832475
2019-06-12,1.131609353783643
2019-06-13,1.127618733905818
2019-06-14,1.1247904794653703
2019-06-17,1.1238701120048018
2019-06-18,1.1254993086875422
2019-06-19,1.131141374977383
2019-06-20,1.1465198890441304
2019-06-21,1.1459729229300875
2019-06-24,1.1484647350369173
2019-06-25,1.1404893976800066
2019-06-26,1.1436242208080758
2019-06-27,1.1607233579607916
2019-06-28,1.1596324560039906
2019-07-01,1.1882867338350922
2019-07-02,1.1921860785899474
2019-07-03,1.1794729242818904
2019-07-04,1.1712289028526786
2019-07-05,1.1800855266745
2019-07-08,1.1607461180478995
2019-07-09,1.1628338738359134
2019-07-10,1.1637752676692648
2019-07-11,1.1608229618253363
2019-07-12,1.1634333883434906
2019-07-15,1.166932346761745
2019-07-16,1.1596718312305296
2019-07-17,1.160090083706501
2019-07-18,1.154418708185764
2019-07-19,1.1581244000344564
2019-07-22,1.1581498294075332
2019-07-23,1.1634170885772501
2019-07-24,1.1662212983589828
2019-07-25,1.1708858265370174
2019-07-26,1.175260092916054
2019-07-29,1.1738970755429832
2019-07-30,1.1738885926416032
2019-07-31,1.1695545412027761
2019-08-01,1.1679264263858864
2019-08-02,1.1606927018587805
2019-08-05,1.1517169627155197
2019-08-06,1.1487934510893412
2019-08-07,1.1476513444415455
2019-08-08,1.1504658156278105
2019-08-09,1.148040417277626
2019-08-12,1.150335646215664
2019-08-13,1.1506799587513412
2019-08-14,1.1511975862462636
2019-08-15,1.153305303844859
2019-08-16,1.153687193151941
2019-08-19,1.1589745756703445
2019-08-20,1.1607190282694817
2019-08-21,1.159162233664977
2019-08-22,1.1603405355433265
2019-08-23,1.1650930326081204
2019-08-26,1.1595859305860943
2019-08-27,1.1693190783267347
2019-08-28,1.1694062635991658
2019-08-29,1.1678268591348684
2019-08-30,1.1703717422588826
2019-09-02,1.182514748192323
2019-09-03,1.1838634624772975
2019-09-04,1.1841672501370186
2019-09-05,1.1884905227303042
2019-09-06,1.1897031455229043
2019-09-09,1.1923348260488178
2019-09-10,1.1890789081333084
2019-09-11,1.1788812160843258
2019-09-12,1.1813079664190125
2019-09-16,1.1782897643608012
2019-09-17,1.1714804830744692
2019-09-18,1.1729422867129693
2019-09-19,1.1743311929697662
2019-09-20,1.1767834445049232
2019-09-23,1.1717471835379603
2019-09-24,1.1739283373603646
2019-09-25,1.171239986007306
2019-09-26,1.1683938285429853
2019-09-27,1.1706893720888718
2019-09-30,1.1673594397431186
2019-10-08,1.1667972741710846
2019-10-09,1.1649257857199447
2019-10-10,1.165488393504738
2019-10-11,1.166383236733166
2019-10-14,1.1668070574408542
2019-10-15,1.167014063863101
2019-10-16,1.166377991267462
2019-10-17,1.1695477549480495
2019-10-18,1.1647028282777268
2019-10-21,1.165145491083797
2019-10-22,1.1686166047029605
2019-10-23,1.1666653597257715
2019-10-24,1.166235341282871
2019-10-25,1.1738488368416002
2019-10-28,1.1755083561747246
2019-10-29,1.1792748751057764
2019-10-30,1.1794259010524228
2019-10-31,1.177883982561499
2019-11-01,1.1829695831976914
2019-11-04,1.1866373384056785
2019-11-05,1.1951090398649842
2019-11-06,1.1909161328904778
2019-11-07,1.1940467024957255
2019-11-08,1.1954666409441916
2019-11-11,1.1846748518406265
2019-11-12,1.1853540079610745
2019-11-13,1.1888784881959173
2019-11-14,1.1880795359450218
2019-11-15,1.1859820528839895
2019-11-18,1.1868298043128411
2019-11-19,1.1919985440141954
2019-11-20,1.1868524331760877
2019-11-21,1.1847257483609939
2019-11-22,1.1789137364179694
2019-11-25,1.1807253995199116
2019-11-26,1.1831839016448515
2019-11-27,1.1825033581588167
2019-11-28,1.1824595299511513
2019-11-29,1.1796384179002561
2019-12-02,1.1840386566085124
2019-12-03,1.1881715880747927
2019-12-04,1.186905241913095
2019-12-05,1.1893877703746398
2019-12-06,1.1927709889694749
2019-12-09,1.1939738378008717
2019-12-10,1.195947980278599
2019-12-11,1.1940736528426512
2019-12-12,1.1913146026305192
2019-12-13,1.195524646788244
2019-12-16,1.1965620741363858
2019-12-17,1.2016238036362847
2019-12-18,1.1974602781160133
2019-12-19,1.1951245298977522
2019-12-20,1.1945391827487073
2019-12-23,1.1888197111056453
2019-12-24,1.1977810740890351
2019-12-25,1.2025762979063095
2019-12-26,1.2043302106390428
2019-12-27,1.20135172105597
2019-12-30,1.2115189539080211
2019-12-31,1.209674735582572
2020-01-02,1.2192578692933476
2020-01-03,1.2197576825475642
2020-01-06,1.2166859412296638
2020-01-07,1.2201299699629673
2020-01-08,1.2134394182470538
2020-01-09,1.2262246578158624
2020-01-10,1.2249154732753593
2020-01-13,1.2350394625587182
2020-01-14,1.2330923944509415
2020-01-15,1.232313088711434
2020-01-16,1.2307269372267708
2020-01-17,1.2343529111245306
2020-01-20,1.2385122357272327
2020-01-21,1.2269142396475339
2020-01-22,1.231912284166828
2020-01-23,1.2193687063646141
2020-02-03,1.2025671016702901
2020-02-04,1.2102692272480151
2020-02-05,1.224761107556551
2020-02-06,1.2302914680686863
2020-02-07,1.2267951158535213
2020-02-10,1.2298737696514241
2020-02-11,1.228376348664739
2020-02-12,1.2291264071859185
2020-02-13,1.2284418588230834
2020-02-14,1.229312080116645
2020-02-17,1.2397304543457255
2020-02-18,1.2416782973345055
2020-02-19,1.2406731970071654
2020-02-20,1.2499539839608944
2020-02-21,1.2556294333956375
2020-02-24,1.2584629134429643
2020-02-25,1.2711496782729277
2020-02-26,1.2510249547918972
2020-02-27,1.2516748451695001
2020-02-28,1.235315118395222
2020-03-02,1.2496807483399979
2020-03-03,1.2503735402536438
2020-03-04,1.2506959917621283
2020-03-05,1.2578930313022256
2020-03-06,1.2474838863796178
2020-03-09,1.2316057314692517
2020-03-10,1.2409232252565572
2020-03-11,1.2313687824423156
2020-03-12,1.2213225687559517
2020-03-13,1.2170347305045384
2020-03-16,1.2068618574582584
2020-03-17,1.2068618574582584
2020-03-18,1.2068618574582584
2020-03-19,1.2068300979356936
2020-03-20,1.206548686129595
2020-03-23,1.2049531908703899
2020-03-24,1.2074185002802427
2020-03-25,1.2079723868536258
2020-03-26,1.210874020760191
2020-03-27,1.2097073748459677
2020-03-30,1.2102887303640764
2020-03-31,1.209901371890408
2020-04-01,1.2088321236752966
2020-04-02,1.2091446766538112
2020-04-03,1.2099870779730073
2020-04-07,1.211274294404599
2020-04-08,1.210425793876333
2020-04-09,1.2110094573961878
2020-04-10,1.2097601163151503
2020-04-13,1.211073719228445
2020-04-14,1.2129446564598276
2020-04-15,1.2085419491734914
2020-04-16,1.2115217148651414
2020-04-17,1.221648540977007
2020-04-20,1.2231234655798806
2020-04-21,1.2151970042336204
2020-04-22,1.2203884616802134
2020-04-23,1.2197013754887711
2020-04-24,1.2155378120414366
2020-04-27,1.2177385259065614
2020-04-28,1.2312861948125382
2020-04-29,1.2322882962296076
2020-04-30,1.2398473098393656
2020-05-06,1.2402861238368508
2020-05-07,1.2386295932812845
2020-05-08,1.2439577907504502
2020-05-11,1.2433204110974498
2020-05-12,1.2477588346774178
2020-05-13,1.2478628670273102
2020-05-14,1.2360374519310329
2020-05-15,1.233271842878656
2020-05-18,1.232150905694325
2020-05-19,1.2370775098681572
2020-05-20,1.2331130624742668
2020-05-21,1.228709697919945
2020-05-22,1.2168884547135617
2020-05-25,1.2201292743953978
2020-05-26,1.2244085806312843
2020-05-27,1.2234856750492777
2020-05-28,1.2196656100568366
2020-05-29,1.2260997689484687
2020-06-01,1.2326594677198253
2020-06-02,1.2288399940437058
2020-06-03,1.2279506518454377
2020-06-04,1.2250978826594914
2020-06-05,1.2302158795376927
2020-06-08,1.2328325415122048
2020-06-09,1.2394790395383857
2020-06-10,1.2393027774263083
2020-06-11,1.240357474918271
2020-06-12,1.2404276085333446
2020-06-15,1.2298377108288396
2020-06-16,1.2370699984152294
2020-06-17,1.2392410199418282
2020-06-18,1.243717424014058
2020-06-19,1.2510747317248394
2020-06-22,1.253575781332698
2020-06-23,1.2645431678013128
2020-06-24,1.2698290723531362
2020-06-29,1.2705731375366907
2020-06-30,1.28351258171706
2020-07-01,1.2971392376463133
2020-07-02,1.309959203253246
2020-07-03,1.3233427618175022
2020-07-06,1.3755265558769054
2020-07-07,1.386663725616399
2020-07-08,1.400030050359025
2020-07-09,1.423782390340778
2020-07-10,1.4081672636023403
2020-07-13,1.443773758911289
2020-07-14,1.4354225130606795
2020-07-15,1.441701790840859
2020-07-16,1.3682112784019893
2020-07-17,1.3806476593408046
2020-07-20,1.4058016432205522
2020-07-21,1.4166977227846573
2020-07-22,1.421777540407569
2020-07-23,1.441697317895342
2020-07-24,1.40095230344354
2020-07-27,1.410562229590414
2020-07-28,1.4104364161236247
2020-07-29,1.4309996268533733
2020-07-30,1.434255213458772
2020-07-31,1.4441992911147525
2020-08-03,1.4548773054825779
2020-08-04,1.4511683062851046
2020-08-05,1.4588525065398628
2020-08-06,1.4571176098948226
2020-08-07,1.4510199901983085
2020-08-10,1.4425478882397498
2020-08-11,1.4274864420742364
2020-08-12,1.4138581548459213
2020-08-13,1.4146659919492823
2020-08-14,1.415810265188809
2020-08-17,1.4262124461840464
2020-08-18,1.4269971294276567
2020-08-19,1.4218297186788824
2020-08-20,1.4146656524142853
2020-08-21,1.4148025275385592
2020-08-24,1.421850036474122
2020-08-25,1.4243335937246342
2020-08-26,1.4215238274825763
2020-08-27,1.421429585457232
2020-08-28,1.4319338526474936
2020-08-31,1.4336353466987393
2020-09-01,1.439048744971655
2020-09-02,1.438421733470866
2020-09-03,1.437453598798736
2020-09-04,1.4300032219040664
2020-09-07,1.415335880404495
2020-09-08,1.4147596515628411
2020-09-09,1.406429737122253
2020-09-10,1.4113651343279152
2020-09-11,1.4186246741947655
2020-09-14,1.4226725029041254
2020-09-15,1.4277450274709496
2020-09-16,1.429396381303438
2020-09-17,1.4299568270177125
2020-09-18,1.4310911892423435
2020-09-21,1.4217930309151297
2020-09-22,1.41488779069469
2020-09-23,1.4172962438200505
2020-09-24,1.4088167407940557
2020-09-25,1.4068674895444708
2020-09-28,1.4100328005061287
2020-09-29,1.4090196407460323
2020-09-30,1.411882257289691
2020-10-09,1.4184386091343693
2020-10-12,1.4358751794245928
2020-10-13,1.4444033440183233
2020-10-14,1.442440871944902
2020-10-15,1.439186288341451
2020-10-16,1.4345069836954016
2020-10-19,1.4258754098718367
2020-10-20,1.4403486120172198
2020-10-21,1.4366912641441958
2020-10-22,1.4348489180258195
2020-10-23,1.416791795757571
2020-10-26,1.4234436652297793
2020-10-27,1.4244829542288309
2020-10-28,1.4333721612978876
2020-10-29,1.4369729176606654
2020-10-30,1.4308262087225636
2020-11-02,1.449046932487031
2020-11-03,1.4563488781365193
2020-11-04,1.4637827109997439
2020-11-05,1.4718304672709965
2020-11-06,1.4728062602155723
2020-11-09,1.4817156117850734
2020-11-10,1.4735680644128553
2020-11-11,1.459582105753591
2020-11-12,1.465292713952378
2020-11-13,1.4566466460306393
2020-11-16,1.4657250213186603
2020-11-17,1.4620392663791602
2020-11-18,1.4593874661689956
2020-11-19,1.4603330748513164
2020-11-20,1.4710718840392472
2020-11-23,1.4814597361078294
2020-11-24,1.4723583425161222
2020-11-25,1.46908046828423
2020-11-26,1.4674337944118105
2020-11-27,1.4766369674519062
2020-11-30,1.4749324949351157
2020-12-01,1.483761413028155
2020-12-02,1.4806391821121265
2020-12-03,1.470857404657103
2020-12-04,1.4776451729528712
2020-12-07,1.4675654075323472
2020-12-08,1.464187109777394
2020-12-09,1.454962226351232
2020-12-10,1.4538602133493175
2020-12-11,1.4522079726068433
2020-12-14,1.4553372694117774
2020-12-15,1.458010706010413
2020-12-16,1.4617767006041558
2020-12-17,1.467456181886232
2020-12-18,1.4692791581960551
2020-12-21,1.4858738945787244
2020-12-22,1.4784351308066244
2020-12-23,1.4903684407805675
2020-12-24,1.4886112279206496
2020-12-25,1.4993649003314509
2020-12-28,1.5040378691160274
2020-12-29,1.4910474781847722
2020-12-30,1.5148890679826794
2020-12-31,1.5285067311337281
2021-01-04,1.5517115164609896
2021-01-05,1.580211383869266
2021-01-06,1.5898448287339826
2021-01-07,1.6257007151214813
2021-01-08,1.615431633311752
2021-01-11,1.6069332739003621
2021-01-12,1.649579376387124
2021-01-13,1.6366477375259518
2021-01-14,1.600531075539904
2021-01-15,1.6029361152281631
2021-01-18,1.6110919514745334
2021-01-19,1.5874207920991346
2021-01-20,1.5910844344068917
2021-01-21,1.6045015073652715
2021-01-22,1.6017966239532928
2021-01-25,1.6107192129755845
2021-01-26,1.5858293331197213
2021-01-27,1.596710096151719
2021-01-28,1.571482255455869
2021-01-29,1.567361176252289
2021-02-01,1.5694346592801227
2021-02-02,1.572710297157256
2021-02-03,1.571172576870927
2021-02-04,1.5666220721336086
2021-02-05,1.5771242419766682
2021-02-08,1.587273695825192
2021-02-09,1.5972814425978596
2021-02-10,1.6198374037476444
2021-02-18,1.6117795584055057
2021-02-19,1.6045946066498196
2021-02-22,1.575582760859601
2021-02-23,1.5759241488557616
2021-02-24,1.552873822426868
2021-02-25,1.5569483826791226
2021-02-26,1.5405079253381027
2021-03-01,1.5441310805224004
2021-03-02,1.5373652633608184
2021-03-03,1.5451584606440576
2021-03-04,1.5390661299551098
2021-03-05,1.5380869878074954
2021-03-08,1.5382110629791543
2021-03-09,1.5370412514459217
2021-03-10,1.53454885094637
2021-03-11,1.5375311722501646
2021-03-12,1.5389773305968661
2021-03-15,1.5401264405661461
2021-03-16,1.5410127841347814
2021-03-17,1.537212918251235
2021-03-18,1.5368456137552724
2021-03-19,1.5310558921823039
2021-03-22,1.5332201592714458
2021-03-23,1.5320565195536733
2021-03-24,1.531126243941394
2021-03-25,1.5315628414538511
2021-03-26,1.5312959301117075
2021-03-29,1.5334531308932535
2021-03-30,1.5338779039536066
2021-03-31,1.5326883632708936
2021-04-01,1.5354203359760696
2021-04-02,1.5413766731354017
2021-04-06,1.538012127248352
2021-04-07,1.53499866315479
2021-04-08,1.5353415340782233
2021-04-09,1.5251381300791027
2021-04-12,1.5211959270342132
2021-04-13,1.5187831179287459
2021-04-14,1.5212063447805257
2021-04-15,1.5206074890166152
2021-04-16,1.5252657794923472
2021-04-19,1.5386092349370442
2021-04-20,1.5398940792059193
2021-04-21,1.5470864026442317
2021-04-22,1.5477173072567114
2021-04-23,1.5544312658284043
2021-04-26,1.547904832130366
2021-04-27,1.5504717168161817
2021-04-28,1.5655699900969038
2021-04-29,1.571114416436873
2021-04-30,1.5748101227337206
2021-05-06,1.5613138362504002
2021-05-07,1.5469539444515692
2021-05-10,1.554642495969514
2021-05-11,1.5563550263306722
2021-05-12,1.55855650779851
2021-05-13,1.5543311225932568
2021-05-14,1.565337433185899
2021-05-17,1.5782296151997766
2021-05-18,1.573594198435376
2021-05-19,1.5759134304782776
2021-05-20,1.5730217075739665
2021-05-21,1.5678090925827295
2021-05-24,1.5742018876547643
2021-05-25,1.5879271420910972
2021-05-26,1.5913795262930974
2021-05-27,1.589979104726491
2021-05-28,1.5958657127766862
2021-05-31,1.600704442326819
2021-06-01,1.6019624470551679
2021-06-02,1.5931841635102357
2021-06-03,1.5883634626842027
2021-06-04,1.59509528994122
2021-06-07,1.5887580205441805
2021-06-08,1.5889705214463095
2021-06-09,1.5888410882118718
2021-06-10,1.597569577693341
2021-06-11,1.5944679731356497
2021-06-15,1.5939134189871302
2021-06-16,1.5824389744266723
2021-06-17,1.5889564905013442
2021-06-18,1.5927014583012016
2021-06-21,1.5904288087507517
2021-06-22,1.5899265632719315
2021-06-23,1.5891095372083737
2021-06-24,1.5925741627259171
2021-06-25,1.5953218628610195
2021-06-28,1.5987039477794485
2021-06-29,1.5958922100604707
2021-06-30,1.59934267012688
2021-07-01,1.5937065719870998
2021-07-02,1.5767682288521494
2021-07-05,1.5802786350925717
2021-07-06,1.571809351696501
2021-07-07,1.5782014951215535
2021-07-08,1.5777662497789762
2021-07-09,1.5786048906433394
2021-07-12,1.5802792886509376
2021-07-13,1.5752824287322875
2021-07-14,1.5674891943320721
2021-07-15,1.5682252114783974
2021-07-16,1.5628356347084125
2021-07-19,1.5635030315473355
2021-07-20,1.5639079839658403
2021-07-21,1.5745942687405758
2021-07-22,1.5713641222971566
2021-07-23,1.5677213593088561
2021-07-26,1.5509324620579443
2021-07-27,1.5355799144408324
2021-07-28,1.5331285519934335
2021-07-29,1.539866376148341
2021-07-30,1.5465900260947019
2021-08-02,1.552418999164156
2021-08-03,1.5509867959919632
2021-08-04,1.559753283031263
2021-08-05,1.5584099128911943
2021-08-06,1.5526811134009897
2021-08-09,1.5521691202702639
2021-08-10,1.5516737798715856
2021-08-11,1.5446576281750453
2021-08-12,1.5515690744412178
2021-08-13,1.5450401321220737
2021-08-16,1.543110233135881
2021-08-17,1.5382469807224493
2021-08-18,1.5397536379908419
2021-08-19,1.5334062480563995
2021-08-20,1.5299528592607976
2021-08-23,1.530153663728552
2021-08-24,1.5310372800092669
2021-08-25,1.5330377647570015
2021-08-26,1.5279544349123473
2021-08-27,1.531227125331908
2021-08-30,1.5310023195614688
2021-08-31,1.5398351739902707
2021-09-01,1.540413965204784
2021-09-02,1.5442944293587908
2021-09-03,1.5391031958808634
2021-09-06,1.5417605476633551
2021-09-07,1.544954137873633
2021-09-08,1.5397283270695374
2021-09-09,1.5442398364558185
2021-09-10,1.5493871984716137
2021-09-13,1.5418475836619618
2021-09-14,1.5234509425154314
2021-09-15,1.5158755645381887
2021-09-16,1.5115274260981446
2021-09-17,1.5127455637133516
2021-09-22,1.5198829582137114
2021-09-23,1.5159147301093197
2021-09-24,1.5167053085230364
2021-09-27,1.517023408328406
2021-09-28,1.5189203721382
2021-09-29,1.5169602215560312
2021-09-30,1.5202899988437542
2021-10-08,1.528173730542811
2021-10-11,1.5270946730265598
2021-10-12,1.5251419735868859
2021-10-13,1.5272090263767615
2021-10-14,1.5209319613186396
2021-10-15,1.518958578957466
2021-10-18,1.5074726741613564
2021-10-19,1.5098952657052007
2021-10-20,1.5062093568252368
2021-10-21,1.5042679428201489
2021-10-22,1.5086777384055496
2021-10-25,1.511377752443063
2021-10-26,1.5053926086139484
2021-10-27,1.501055093319744
2021-10-28,1.5051398414578174
2021-10-29,1.5158772270240004
2021-11-01,1.516288280346228
2021-11-02,1.5107027099614925
2021-11-03,1.5038927836716254
2021-11-04,1.5082965180582215
2021-11-05,1.5060472590341951
2021-11-08,1.5010944018584982
2021-11-09,1.4985342145519915
2021-11-10,1.4926621176967207
2021-11-11,1.496424715059154
2021-11-12,1.4947271848917272
2021-11-15,1.4916631753115377
2021-11-16,1.4901603448895897
2021-11-17,1.4882900613013454
2021-11-18,1.4831843718399207
2021-11-19,1.4881698034670847
2021-11-22,1.4861856826213136
2021-11-23,1.484655352130105
2021-11-24,1.484034390474387
2021-11-25,1.4821823904339182
2021-11-26,1.478487440526389
2021-11-29,1.4815521425556408
2021-11-30,1.4807312124913385
2021-12-01,1.478621893312195
2021-12-02,1.4788817613310175
2021-12-03,1.485557757403234
2021-12-06,1.482490344560884
2021-12-07,1.481908364543111
2021-12-08,1.4879520451699686
2021-12-09,1.494351282567556
2021-12-10,1.4887456566953177
2021-12-13,1.4949247089583542
2021-12-14,1.488975455796655
2021-12-15,1.4832060991448146
2021-12-16,1.4875505199298
2021-12-17,1.4764501982875107
2021-12-20,1.4716785956791962
2021-12-21,1.4754169980407439
2021-12-22,1.475871366332826
2021-12-23,1.4832734691832687
2021-12-24,1.4869239692936254
2021-12-27,1.4822376541770332
2021-12-28,1.4805118959799344
2021-12-29,1.4729253321663291
2021-12-30,1.4766273708788382
2021-12-31,1.4767397439944578
2022-01-04,1.4738345908955108
2022-01-05,1.468566033451383
2022-01-06,1.46180754804552
2022-01-07,1.4709968043638935
2022-01-10,1.4740308500917019
2022-01-11,1.4702703615446495
2022-01-12,1.4661578315368122
2022-01-13,1.4611258621956933
2022-01-14,1.4522859952587912
2022-01-17,1.4520828850208491
2022-01-18,1.4571759798376114
2022-01-19,1.4585929543742142
2022-01-20,1.4623022161443908
2022-01-21,1.4595974801917018
2022-01-24,1.452362140167427
2022-01-25,1.4469949288342923
2022-01-26,1.4471101877423318
2022-01-27,1.4419891126330133
2022-01-28,1.43767771973897
2022-02-07,1.4451806819026636
2022-02-08,1.4489775494273114
2022-02-09,1.4528231266468952
2022-02-10,1.4542531083060732
2022-02-11,1.4566863381091009
2022-02-14,1.451106086452031
2022-02-15,1.4452869139692537
2022-02-16,1.4471400696143748
2022-02-17,1.4480006736645052
2022-02-18,1.4528994579882204
2022-02-21,1.4504180491522218
2022-02-22,1.4457411544599756
2022-02-23,1.4433801596301012
2022-02-24,1.4391756171881067
2022-02-25,1.4376420156782284
2022-02-28,1.4394673789231047
2022-03-01,1.4413689098603255
2022-03-02,1.4431314047637285
2022-03-03,1.443215635712474
2022-03-04,1.4415954848237775
2022-03-07,1.4388547416831434
2022-03-08,1.4324857783294007
2022-03-09,1.4324222306912477
2022-03-10,1.4337640546026083
2022-03-11,1.4339713820987503
2022-03-14,1.4309198646955879
2022-03-15,1.420511356788125
2022-03-16,1.426067385746547
2022-03-17,1.4292940188870233
2022-03-18,1.4303832430916046
2022-03-21,1.4366047733999514
2022-03-22,1.4345781456795108
2022-03-23,1.4305966597754691
2022-03-24,1.43164324591942
2022-03-25,1.4284983866530307
2022-03-28,1.428142206853004
2022-03-29,1.4316080398241928
2022-03-30,1.431406281998286
2022-03-31,1.4308094590934681
2022-04-01,1.4327971029922228
2022-04-06,1.4325604320119398
2022-04-07,1.4253400002993477
2022-04-08,1.4278230913214416
2022-04-11,1.4180767474881535
2022-04-12,1.4167766183482142
2022-04-13,1.4188886020007432
2022-04-14,1.4235753314519812
2022-04-15,1.425149898442469
2022-04-18,1.4145646064685578
2022-04-19,1.410296451911262
2022-04-20,1.3982851226327633
2022-04-21,1.3959754727440985
2022-04-22,1.3990916041837127
2022-04-25,1.391338361524554
2022-04-26,1.3928648375938457
2022-04-27,1.3969895529343015
2022-04-28,1.3966875852973468
2022-04-29,1.4083310230837254
2022-05-05,1.4015349005546156
2022-05-06,1.3902629629343037
2022-05-09,1.385433458675152
2022-05-10,1.3897135171060673
2022-05-11,1.3932257643232406
2022-05-12,1.3930986124682883
2022-05-13,1.3982587821271575
2022-05-16,1.3957982659144177
2022-05-17,1.400250496885536
2022-05-18,1.398987840092038
2022-05-19,1.4022363894135856
2022-05-20,1.4078720594531304
2022-05-23,1.404299628251254
2022-05-24,1.3982012409655553
2022-05-25,1.4010435836128012
2022-05-26,1.4011492576022089
2022-05-27,1.4007713809110167
2022-05-30,1.3998150928662982
2022-05-31,1.4017787920601654
2022-06-01,1.3985864589173103
2022-06-02,1.4017238448590634
2022-06-06,1.4148593375274672
2022-06-07,1.4119460691477868
2022-06-08,1.4217632737085941
2022-06-09,1.4070960697922357
2022-06-10,1.4214393650164279
2022-06-13,1.4092302735130893
2022-06-14,1.4166247117474187
2022-06-15,1.42407837053395
2022-06-16,1.4192660886133681
2022-06-17,1.428440893341628
2022-06-20,1.4339815986316504
2022-06-21,1.4349504289445896
2022-06-22,1.4238344876589388
2022-06-23,1.438124089265445
2022-06-24,1.4527484995013902
2022-06-27,1.4639457160895808
2022-06-28,1.4741658631704635
2022-06-29,1.4536131065679643
2022-06-30,1.4715351373202619
2022-07-01,1.4665219299471386
2022-07-04,1.4845660850227582
2022-07-05,1.4831385159944865
2022-07-06,1.4628267953942098
2022-07-07,1.4652375769705626
2022-07-08,1.4645120678734702
2022-07-11,1.4527245456723181
2022-07-12,1.4519290197162127
2022-07-13,1.4484822051411281
2022-07-14,1.448953179160205
2022-07-15,1.4429588761539414
2022-07-18,1.4432670902882638
2022-07-19,1.4419888204644633
2022-07-20,1.4405278700265736
2022-07-21,1.4403865018972906
2022-07-22,1.440483057468221
2022-07-25,1.4408253101053752
2022-07-26,1.4384551577183802
2022-07-27,1.437608374278065
2022-07-28,1.43668307255681
2022-07-29,1.4366589023923158
2022-08-01,1.4364247912012764
2022-08-02,1.4354847380274294
2022-08-03,1.4345026518846429
2022-08-04,1.4363441130044563
2022-08-05,1.4363019098951522
2022-08-08,1.4373919696946809
2022-08-09,1.4372309480280583
2022-08-10,1.4358447458581811
2022-08-11,1.4399163839388496
2022-08-12,1.4390367387922964
2022-08-15,1.4348587946233717
2022-08-16,1.4343804599589045
2022-08-17,1.4374621942098895
2022-08-18,1.4331658910758691
2022-08-19,1.4349378430404887
2022-08-22,1.4389797889992366
2022-08-23,1.4362917798721795
2022-08-24,1.4315347767661906
2022-08-25,1.4359341445015323
2022-08-26,1.4350180089971354
2022-08-29,1.4322876576672918
2022-08-30,1.4280042155898105
2022-08-31,1.4281840986599579
2022-09-01,1.425000094866122
2022-09-02,1.4216199870383046
2022-09-05,1.4229699609937645
2022-09-06,1.4251000352864054
2022-09-07,1.4210450100570198
2022-09-08,1.4232807922292614
2022-09-09,1.4322169305121117
2022-09-13,1.4335705852257832
2022-09-14,1.4293439337995457
2022-09-15,1.4321016307834795
2022-09-16,1.4182215654519383
2022-09-19,1.419992012888219
2022-09-20,1.414856283377974
2022-09-21,1.410874565565251
2022-09-22,1.4077420824880464
2022-09-23,1.4074383472682552
2022-09-26,1.407529819011394
2022-09-27,1.4099565331386663
2022-09-28,1.4081222226057246
2022-09-29,1.4058632648089302
2022-09-30,1.4046915332478003
2022-10-10,1.400858399048886
2022-10-11,1.4003129445388995
2022-10-12,1.3994785581285445
2022-10-13,1.399221825425035
2022-10-14,1.399362725291399
2022-10-17,1.399345585823065
2022-10-18,1.3990672369750285
2022-10-19,1.3971430914733907
2022-10-20,1.3979316668673811
2022-10-21,1.3984852111710444
2022-10-24,1.3965201486242595
2022-10-25,1.3940096074274286
2022-10-26,1.3957952383429857
2022-10-27,1.3959049415190847
2022-10-28,1.3947158123210017
2022-10-31,1.3961539416579418
2022-11-01,1.398577576493673
2022-11-02,1.4002605022327148
2022-11-03,1.3993866181986916
2022-11-04,1.403485493519617
2022-11-07,1.4088784660562028
2022-11-08,1.4061418136300956
2022-11-09,1.4054649595005735
2022-11-10,1.3990592463486857
2022-11-11,1.4063807999373108
2022-11-14,1.4071779673937577
2022-11-15,1.4168935546082604
2022-11-16,1.4109228749434164
2022-11-17,1.4059333455167489
2022-11-18,1.4039012480469961
2022-11-21,1.3980181919052188
2022-11-22,1.3969670270838388
2022-11-23,1.393687035056367
2022-11-24,1.3921593447190654
2022-11-25,1.3963301020553
2022-11-28,1.386614142971243
2022-11-29,1.4038719610587078
2022-11-30,1.4014729903146206
2022-12-01,1.4056964688157074
2022-12-02,1.3971736240860146
2022-12-05,1.4111679931319383
2022-12-06,1.4140456961974737
2022-12-07,1.4068364444509447
2022-12-08,1.406800141949098
2022-12-09,1.421737366993746
2022-12-12,1.4071526673165158
2022-12-13,1.4077553092003972
2022-12-14,1.4133573735662708
2022-12-15,1.4115181234633007
2022-12-16,1.4131096630013957
2022-12-19,1.3960007233399028
2022-12-20,1.3819631646009287
2022-12-21,1.3837557315101865
2022-12-22,1.383686774492991
2022-12-23,1.384074280778399
2022-12-26,1.3807397602173095
2022-12-27,1.3839800794304236
2022-12-28,1.383151106106795
2022-12-29,1.3812800158886764
2022-12-30,1.3814128514732904
2023-01-03,1.3807280129275652
2023-01-04,1.3818255620040383
2023-01-05,1.3857091878312533
2023-01-06,1.3859729777273695
2023-01-09,1.3880910620857256
2023-01-10,1.3875699709162754
2023-01-11,1.3874161722310454
2023-01-12,1.3864067119485581
2023-01-13,1.3954344736116442
2023-01-16,1.4042023967040242
2023-01-17,1.3997171141283602
2023-01-18,1.3955199330886876
2023-01-19,1.4050818854591385
2023-01-20,1.407712508096429
2023-01-30,1.407645646927778
2023-01-31,1.3981227176049535
2023-02-01,1.408773254412075
2023-02-02,1.4023839045403157
2023-02-03,1.3938490507938122
2023-02-06,1.3829898568755226
2023-02-07,1.381820096549835
2023-02-08,1.3815424461071546
2023-02-09,1.3852596670606132
2023-02-10,1.3820723029967243
2023-02-13,1.3852205260139132
2023-02-14,1.386908691860605
2023-02-15,1.3854479373730457
2023-02-16,1.3839097851362987
2023-02-17,1.3822996783046544
2023-02-20,1.3888801625346083
2023-02-21,1.3907096439328364
2023-02-22,1.389071767062087
2023-02-23,1.3899267175832892
2023-02-24,1.3849174856007271
2023-02-27,1.3832638084329587
2023-02-28,1.3859003465533661
2023-03-01,1.3926218934028587
2023-03-02,1.3921675149734767
2023-03-03,1.3940615388083393
2023-03-06,1.39211978653272
2023-03-07,1.3881531748005214
2023-03-08,1.3878846021160158
2023-03-09,1.386977374301747
2023-03-10,1.3839544597868443
2023-03-13,1.390147496638021
2023-03-14,1.3887517534982983
2023-03-15,1.3908172816921065
2023-03-16,1.3884423262164531
2023-03-17,1.3928279716145118
2023-03-20,1.3926121888697747
2023-03-21,1.391924608571574
2023-03-22,1.3939241924043204
2023-03-23,1.395950481737064
2023-03-24,1.3933777146398818
2023-03-27,1.3892916982043053
2023-03-28,1.3875660202389557
2023-03-29,1.388888567119278
2023-03-30,1.3885227506333575
2023-03-31,1.3893156822363428
2023-04-03,1.3874206681507075
2023-04-04,1.3923550388151171
2023-04-06,1.395971313261
2023-04-07,1.4002360714890392
2023-04-10,1.4018114901198881
2023-04-11,1.4030660707371228
2023-04-12,1.40604802877604
2023-04-13,1.3993413329141449
2023-04-14,1.4032607248891105
2023-04-17,1.4093908832862767
2023-04-18,1.4107479800782317
2023-04-19,1.4037723909175763
2023-04-20,1.401216881930729
2023-04-21,1.3856162454378738
2023-04-24,1.3846433604803428
2023-04-25,1.3832702295121657
2023-04-26,1.3820012629624028
2023-04-27,1.3848746924125197
2023-04-28,1.3852024051409033
2023-05-04,1.3851363120264566
2023-05-05,1.38173869469261
2023-05-08,1.3866369173850992
2023-05-09,1.3831764393337038
2023-05-10,1.3805425075748439
2023-05-11,1.381454095134596
2023-05-12,1.3787864535787582
2023-05-15,1.3821106702000054
2023-05-16,1.3814602734186938
2023-05-17,1.379514984739086
2023-05-18,1.3773979621240646
2023-05-19,1.375347836887292
2023-05-22,1.3777481920757424
2023-05-23,1.374977324741323
2023-05-24,1.3732338162440327
2023-05-25,1.3716364469916822
2023-05-26,1.3710975674090835
2023-05-29,1.3710044635504917
2023-05-30,1.370513326958066
2023-05-31,1.369652221685978
2023-06-01,1.3694763552104752
2023-06-02,1.3695421477819312
2023-06-05,1.3686948558922598
2023-06-06,1.3649741164632125
2023-06-07,1.3649381960917266
2023-06-08,1.3657134802220823
2023-06-09,1.3657331669232289
2023-06-12,1.3659532971383876
2023-06-13,1.3655321316518287
2023-06-14,1.3670350923889913
2023-06-15,1.370446399073496
2023-06-16,1.3723892311193273
2023-06-19,1.3682142320480317
2023-06-20,1.369242698443673
2023-06-21,1.365176977488518
2023-06-26,1.3617725299503614
2023-06-27,1.3651399479371842
2023-06-28,1.363777827327687
2023-06-29,1.3620178413796538
2023-06-30,1.3633094907615535
2023-07-03,1.3657721004902077
2023-07-04,1.368713982573808
2023-07-05,1.367834508305571
2023-07-06,1.3661683476846167
2023-07-07,1.3657058038223955
2023-07-10,1.3649426499912363
2023-07-11,1.3678730479011603
2023-07-12,1.3670862174722007
2023-07-13,1.3703464799105942
2023-07-14,1.3695139100309934
2023-07-17,1.3652833232170345
2023-07-18,1.3654504344601588
2023-07-19,1.365060098429458
2023-07-20,1.362956814774066
2023-07-21,1.362486252503891
2023-07-24,1.3595829248485611
2023-07-25,1.3662912274280052
2023-07-26,1.3650873109081725
2023-07-27,1.3643575500607132
2023-07-28,1.3853918303956352
2023-07-31,1.394574679161683
2023-08-01,1.387490136889811
2023-08-02,1.3837415841235003
2023-08-03,1.3893384415353212
2023-08-04,1.3925740345023245
2023-08-07,1.3837866800636698
2023-08-08,1.3793589353595772
2023-08-09,1.377072140249932
2023-08-10,1.3764535518462824
2023-08-11,1.3595427953551436
2023-08-14,1.3559001435957136
2023-08-15,1.3547588666878965
2023-08-16,1.3548098399295359
2023-08-17,1.3549139947225837
2023-08-18,1.3547754135603238
2023-08-21,1.352128490013007
2023-08-22,1.3522872289759067
2023-08-23,1.351834647886143
2023-08-24,1.3516223029188057
2023-08-25,1.3520845091351168
2023-08-28,1.3520376391694786
2023-08-29,1.3517674086983709
2023-08-30,1.3516611225374107
2023-08-31,1.350709899468392
2023-09-01,1.3522766775624748
2023-09-04,1.3558335187122417
2023-09-05,1.3533462968505008
2023-09-06,1.3534196852128124
2023-09-07,1.3521879713581382
2023-09-08,1.3514799203788403
2023-09-11,1.3508750702212329
2023-09-12,1.3498579662778076
2023-09-13,1.3485024030529775
2023-09-14,1.3493258170786158
2023-09-15,1.3491729842077995
2023-09-18,1.351665796966961
2023-09-19,1.3513315968382393
2023-09-20,1.3495792063599403
2023-09-21,1.346690417672603
2023-09-22,1.3487073633932336
2023-09-25,1.3485659120664246
2023-09-26,1.3474846521625965
2023-09-27,1.3471173803804941
2023-09-28,1.3467135939229642
2023-10-09,1.3476365911745962
2023-10-10,1.3483434352522692
2023-10-11,1.3499779143159036
2023-10-12,1.3502393393986034
2023-10-13,1.3502038470848705
2023-10-16,1.3477133774075292
2023-10-17,1.349716030657689
2023-10-18,1.350746164841911
2023-10-19,1.3465460293769502
2023-10-20,1.3450053130434023
2023-10-23,1.3466245114230755
2023-10-24,1.3460124570921879
2023-10-25,1.3464601608272548
2023-10-26,1.3462206228820761
2023-10-27,1.3468870633705439
2023-10-30,1.3509201323260516
2023-10-31,1.349921806474652
2023-11-01,1.3491524710197091
2023-11-02,1.3472756371233323
2023-11-03,1.3483908919410448
2023-11-06,1.3519997145857687
2023-11-07,1.3507142644191084
2023-11-08,1.349379142310667
2023-11-09,1.3467708121066437
2023-11-10,1.3459062493258138
2023-11-13,1.3430528274556337
2023-11-14,1.3432956898068538
2023-11-15,1.345128940034284
2023-11-16,1.3421545859400275
2023-11-17,1.3412783159785913
2023-11-20,1.33977347620241
2023-11-21,1.3400676660086899
2023-11-22,1.3390570425393031
2023-11-23,1.3389319317808734
2023-11-24,1.3394405390313835
2023-11-27,1.3391839841381135
2023-11-28,1.33961989665923
2023-11-29,1.3399982072855294
2023-11-30,1.341431362520658
2023-12-01,1.340755720378436
2023-12-04,1.3419984807221481
2023-12-05,1.338613941750261
2023-12-06,1.3380928110253991
2023-12-07,1.3378025736683763
2023-12-08,1.3396300442546876
2023-12-11,1.3405074396251877
2023-12-12,1.3404119736096454
2023-12-13,1.3398829904982186
2023-12-14,1.339342896640354
2023-12-15,1.3387878787003904
2023-12-18,1.3390863830202784
2023-12-19,1.338624541911185
2023-12-20,1.3368067641293464
2023-12-21,1.3365390779242852
2023-12-22,1.3361234533231576
2023-12-25,1.3368387409294096
2023-12-26,1.3363785178498144
2023-12-27,1.3367334884337378
2023-12-28,1.3367660627520108
2023-12-29,1.3408095670367846
2024-01-02,1.3380065911821033
2024-01-03,1.3361973134471457
2024-01-04,1.3356304527457163
2024-01-05,1.3344639222663823
2024-01-08,1.329042483345783
2024-01-09,1.3316118647259316
2024-01-10,1.330793375608876
2024-01-11,1.3298777064043232
2024-01-12,1.3312376296316604
2024-01-15,1.3318323760763828
2024-01-16,1.3341221811417816
2024-01-17,1.328712489422557
2024-01-18,1.3341916704453836
2024-01-19,1.3317698239377493
2024-01-22,1.3300032919707148
2024-01-23,1.3302556037140538
2024-01-24,1.3320186780387397
2024-01-25,1.335486044359231
2024-01-26,1.3373682234547617
2024-01-29,1.3352479433591233
2024-01-30,1.3303378954975607
2024-01-31,1.3291872893370267
2024-02-01,1.3280688637113787
2024-02-02,1.3264924369375228
2024-02-05,1.3332411036650582
2024-02-06,1.3381723481441645
2024-02-07,1.3456914796276909
2024-02-08,1.3450932450878426
2024-02-19,1.3487949290391508
2024-02-20,1.3511522034821661
2024-02-21,1.3594886953734426
2024-02-22,1.3600192464211307
2024-02-23,1.3568084520007344
2024-02-26,1.3483904736582144
2024-02-27,1.3534382300090573
2024-02-28,1.3428415292791305
2024-02-29,1.355971854172395
2024-03-01,1.360751297611441
2024-03-04,1.3630983964155639
2024-03-05,1.371295293714738
2024-03-06,1.367074864207892
2024-03-07,1.361977009420431
2024-03-08,1.3612054172510728
2024-03-11,1.3741706743524804
2024-03-12,1.3777623324914396
2024-03-13,1.374815420643343
2024-03-14,1.378154682950533
2024-03-15,1.3789312020907794
2024-03-18,1.3881522041739125
2024-03-19,1.3827936357165964
2024-03-20,1.3827614561458887
2024-03-21,1.3842761207760583
2024-03-22,1.3784444270901843
2024-03-25,1.3771513451230335
2024-03-26,1.3800159189032004
2024-03-27,1.3752638620746052
2024-03-28,1.3758797085331032
2024-03-29,1.3783771797705988
2024-04-01,1.3844175359910804
2024-04-02,1.3823528314734332
2024-04-03,1.3837492803498959
2024-04-08,1.3795756320483743
2024-04-09,1.3784404995512156
2024-04-10,1.3807048230601175
2024-04-11,1.3823221562957329
2024-04-12,1.3792603617196357
2024-04-15,1.3848673981395798
2024-04-16,1.3849500245665605
2024-04-17,1.3879388583096615
2024-04-18,1.3892657727495465
2024-04-19,1.3891362902536464
2024-04-22,1.381556360738761
2024-04-23,1.3780369959832244
2024-04-24,1.3784850817915246
2024-04-25,1.3867464507830656
2024-04-26,1.3886011433886738
2024-04-29,1.3949962741209594
2024-04-30,1.3962780349488613
2024-05-06,1.4073216333549745
2024-05-07,1.407557461830799
2024-05-08,1.3995357869617173
2024-05-09,1.4072294445556837
2024-05-10,1.4091256001409267
2024-05-13,1.4092824857966675
2024-05-14,1.411930182488409
2024-05-15,1.4052349185547504
2024-05-16,1.4094128539470554
2024-05-17,1.4159046203820826
2024-05-20,1.4154638254755665
2024-05-21,1.4110312214345924
2024-05-22,1.4110698313198462
2024-05-23,1.4047130987743017
2024-05-24,1.394321683313864
2024-05-27,1.3963908614590437
2024-05-28,1.392375876869645
2024-05-29,1.395090673108271
2024-05-30,1.3934126997562077
2024-05-31,1.3896402587639654
2024-06-03,1.3911714279378846
2024-06-04,1.391954135993464
2024-06-05,1.3923327436769897
2024-06-06,1.3931994960256742
2024-06-07,1.391626096118553
2024-06-11,1.3925862955071673
2024-06-12,1.3940967979720198
2024-06-13,1.3959046929920436
2024-06-14,1.396198143938558
2024-06-17,1.3990344182339933
2024-06-18,1.3994480752076557
2024-06-19,1.399123148753066
2024-06-20,1.399393435710128
2024-06-21,1.3992853837547445
2024-06-24,1.3998417208566416
2024-06-25,1.3990198934295561
2024-06-26,1.3998610134425398
2024-06-27,1.4002783761209614
2024-06-28,1.4012596497870042
2024-07-01,1.4025692464996462
2024-07-02,1.4037557140348944
2024-07-03,1.4021909514943034
2024-07-04,1.4027534104399397
2024-07-05,1.4006275864287052
2024-07-08,1.403347332132431
2024-07-09,1.409769987632773
2024-07-10,1.4072823423097844
2024-07-11,1.4108424052031032
2024-07-12,1.410019033031542
2024-07-15,1.4112683736254414
2024-07-16,1.4159116336396493
2024-07-17,1.4135422125990125
2024-07-18,1.4134263233099373
2024-07-19,1.415049762849576
2024-07-22,1.4108831773586354
2024-07-23,1.3940889902800206
2024-07-24,1.38895285668712
2024-07-25,1.3894863081949498
2024-07-26,1.387186763703547
2024-07-29,1.3841058780047129
2024-07-30,1.381574613587744
2024-07-31,1.385189648063753
2024-08-01,1.387666699098204
2024-08-02,1.3869749661088642
2024-08-05,1.3850380100673723
2024-08-06,1.3846611272073472
2024-08-07,1.3846050259716516
2024-08-08,1.3840187583911665
2024-08-09,1.3826661895897436
2024-08-12,1.3834330909347328
2024-08-13,1.3834396745363482
2024-08-14,1.383391621707354
2024-08-15,1.38568591166051
2024-08-16,1.3848485019837906
2024-08-19,1.3836062204086848
2024-08-20,1.3826813970489062
2024-08-21,1.3825446011857407
2024-08-22,1.3820301841335123
2024-08-23,1.3826392986132505
2024-08-26,1.381436779447152
2024-08-27,1.3820761759481155
2024-08-28,1.3792497460641193
2024-08-29,1.3774598884172573
2024-08-30,1.3782970730801551
2024-09-02,1.3727345673961975
2024-09-03,1.3754945597479034
2024-09-04,1.3742659527142502
2024-09-05,1.3744324530981655
2024-09-06,1.370401396879035
2024-09-09,1.366525242669779
2024-09-10,1.365526648351394
2024-09-11,1.3695188329970809
2024-09-12,1.3687185144952252
2024-09-13,1.3667536694957303
2024-09-18,1.3686985763188857
2024-09-19,1.370410240673404
2024-09-20,1.3683019458488732
2024-09-23,1.3687296268905942
2024-09-24,1.3768493291588262
2024-09-25,1.3852741885100914
2024-09-26,1.4104857763786123
2024-09-27,1.4616076433751406
2024-09-30,1.5555076889430262
2024-10-08,1.6276159913887733
2024-10-09,1.5287051132096883
2024-10-10,1.5450548417194938
2024-10-11,1.5099675494445501
2024-10-14,1.5319816759810985
2024-10-15,1.4991191855347792
2024-10-16,1.4824103239605397
2024-10-17,1.4601326661355323
2024-10-18,1.4995971154888526
2024-10-21,1.507478365707314
2024-10-22,1.5201346297703109
2024-10-23,1.5272040739545276
2024-10-24,1.5110652509658056
2024-10-25,1.5241008380183556
2024-10-28,1.5281355632665656
2024-10-29,1.5178979330187574
2024-10-30,1.5124088990558742
2024-10-31,1.51824559817551
2024-11-01,1.5160998466108895
2024-11-04,1.5263099734822405
2024-11-05,1.5435783627303632
2024-11-06,1.5374122240351755
2024-11-07,1.5594844680038786
2024-11-08,1.5514070731919039
2024-11-11,1.5545159000857975
2024-11-12,1.550260145409607
2024-11-13,1.5495512638210123
2024-11-14,1.5344085734392772
2024-11-15,1.5202064497137786
2024-11-18,1.5154001170161193
2024-11-19,1.517771069906254
2024-11-20,1.5176882624251278
2024-11-21,1.5179121128016182
2024-11-22,1.5124016577345432
2024-11-25,1.5129185838731742
2024-11-26,1.5121564537507772
2024-11-27,1.5123157918212515
2024-11-28,1.5122741416082595
2024-11-29,1.5121187416944433
2024-12-02,1.5120388431115173
2024-12-03,1.5123546352371973
2024-12-04,1.512431948792654
2024-12-05,1.5119342592264586
2024-12-06,1.5123039077317708
2024-12-09,1.5128372816985338
2024-12-10,1.5126211235666742
2024-12-11,1.5128028528276622
2024-12-12,1.514076857566418
2024-12-13,1.5095420105970312
2024-12-16,1.5115211536872393
2024-12-17,1.511621525443841
2024-12-18,1.5131747779965272
2024-12-19,1.5116171706263797
2024-12-20,1.5094180817428502
2024-12-23,1.5128586635869863
2024-12-24,1.516161611469882
2024-12-25,1.5163577946571
2024-12-26,1.515117023806625
2024-12-27,1.5149402764757998
2024-12-30,1.516021140267259
2024-12-31,1.5134417674084941
2025-01-02,1.5059981500347968
2025-01-03,1.5045815835038272
2025-01-06,1.5048586481432742
2025-01-07,1.504895387054866
2025-01-08,1.507672486790854
2025-01-09,1.5081018145177787
2025-01-10,1.5058937227603773
2025-01-13,1.502987058507057
2025-01-14,1.5037601912986316
2025-01-15,1.5016642992840685
2025-01-16,1.5038810001127485
2025-01-17,1.5039229814955735
2025-01-20,1.5035423985169545
2025-01-21,1.503506432805109
2025-01-22,1.5024804104294978
2025-01-23,1.5023146463600028
2025-01-24,1.503120435465207
2025-01-27,1.5040738619648495
2025-02-05,1.5025611493271154
2025-02-06,1.5036395001881782
2025-02-07,1.508007415818906
2025-02-10,1.510873832344811
2025-02-11,1.5112137117265556
2025-02-12,1.517283465076983
2025-02-13,1.5148437349456554
2025-02-14,1.5213934948325258
2025-02-17,1.518507353412988
2025-02-18,1.5138136630450794
2025-02-19,1.5202634297174626
2025-02-20,1.5190495021287498
2025-02-21,1.5266768578008654
2025-02-24,1.52435359816893
2025-02-25,1.5164263344524975
2025-02-26,1.5229965960995973
2025-02-27,1.5260417743714834
2025-02-28,1.5100198756861074
2025-03-03,1.5096999136294247
2025-03-04,1.5074721384338794
2025-03-05,1.5088950109325798
2025-03-06,1.5132394478619287
2025-03-07,1.5134081596968685
2025-03-10,1.5112478836618934
2025-03-11,1.5134372874677275
2025-03-12,1.5085156754502405
2025-03-13,1.507584251023777
2025-03-14,1.5180591374451406
2025-03-17,1.5196807437896118
2025-03-18,1.5205870328337625
2025-03-19,1.5228469727426728
2025-03-20,1.5137428953464929
2025-03-21,1.5035473942193576
2025-03-24,1.5073114021132026
2025-03-25,1.506948296648309
2025-03-26,1.5074448947468506
2025-03-27,1.5081656125901473
2025-03-28,1.50619186372902
2025-03-31,1.5036020770674647
2025-04-01,1.5027474579258102
2025-04-02,1.5008530438051169
2025-04-03,1.5020611307574883
2025-04-07,1.49378820881749
2025-04-08,1.497535583904124
2025-04-09,1.4979183907423284
2025-04-10,1.5014505221983299
2025-04-11,1.4972739638037376
2025-04-14,1.4978764317130386
2025-04-15,1.494406749742244
2025-04-16,1.4988002628880948
2025-04-17,1.4974855823069415
2025-04-18,1.4953405241900422
2025-04-21,1.4936543542744483
2025-04-22,1.4937797688326528
2025-04-23,1.4899212942939066
2025-04-24,1.4913707640694722
2025-04-25,1.490121171864076
2025-04-28,1.4892206798438472
2025-04-29,1.4886669524261393
2025-04-30,1.486972294659497
2025-05-06,1.4864396838574976
2025-05-07,1.485590370367445
2025-05-08,1.4849605425112433
2025-05-09,1.4850908588996043
2025-05-12,1.4927646716382315
2025-05-13,1.4949256201580103
2025-05-14,1.5004554297789319
2025-05-15,1.4924207609901827
2025-05-16,1.4882368864274964
2025-05-19,1.4845589427250174
2025-05-20,1.4903634198808646
2025-05-21,1.494884155418131
2025-05-22,1.4950515420523605
2025-05-23,1.4888553935663782
2025-05-26,1.4824218246857632
2025-05-27,1.478685993908107
2025-05-28,1.480634264694065
2025-05-29,1.4790463447424103
2025-05-30,1.4763213301998637
2025-06-03,1.4782379584914025
2025-06-04,1.4778705150372258
2025-06-05,1.4758776496091837
2025-06-06,1.4753430599473083
2025-06-09,1.4789513281994926
2025-06-10,1.4785436323108652
2025-06-11,1.4819409471386038
2025-06-12,1.4832621204481076
2025-06-13,1.4819016661508844
2025-06-16,1.4810308884550833
2025-06-17,1.4797970046438484
2025-06-18,1.477924841122042
2025-06-19,1.4742856886016926
2025-06-20,1.4754399130655929
2025-06-23,1.475591254422356
2025-06-24,1.4773790450395219
2025-06-25,1.479804107094652
2025-06-26,1.4773805452518178
2025-06-27,1.4776597531499034
2025-06-30,1.4798744248276987
2025-07-01,1.479029181339155
2025-07-02,1.483845623419668
2025-07-03,1.489639534061058
2025-07-04,1.4914698144014178
2025-07-07,1.4873480212421224
2025-07-08,1.4981969731845783
2025-07-09,1.496684893308948
2025-07-10,1.5022500928381535
2025-07-11,1.5003635038518541
2025-07-14,1.5018295522355962
2025-07-15,1.4999138105912386
2025-07-16,1.4978768565192826
2025-07-17,1.5039294679694366
2025-07-18,1.5068940634462056
2025-07-21,1.5153416916406985
2025-07-22,1.530744684136796
2025-07-23,1.5275191807622333
2025-07-24,1.5357812621134188
2025-07-25,1.5235754542070397
2025-07-28,1.521725431212206
2025-07-29,1.5227419840452578
2025-07-30,1.525742208769099
2025-07-31,1.501834573325605
2025-08-01,1.5009444575398452
2025-08-04,1.4988074364915127
2025-08-05,1.5009442728730162
2025-08-06,1.5008361784576947
2025-08-07,1.49999951654974
2025-08-08,1.4992407685914309
2025-08-11,1.5002488938587
2025-08-12,1.5029539175084259
2025-08-13,1.5062693712401276
2025-08-14,1.5036014101175161
2025-08-15,1.5099805095816372
2025-08-18,1.5162128771201921
2025-08-19,1.50810699470533
2025-08-20,1.5141598903714837
2025-08-21,1.5179689554723053
2025-08-22,1.5248610885583793
2025-08-25,1.5353006722521212
2025-08-26,1.5416047962690005
2025-08-27,1.5232330012266486
2025-08-28,1.530521762359649
2025-08-29,1.5370696470579102
2025-09-01,1.5420412915830295
2025-09-02,1.536271093281017
2025-09-03,1.5286788682462604
2025-09-04,1.51539243804008
2025-09-05,1.5379028418532654
2025-09-08,1.5447612297828242
2025-09-09,1.5406347293527207
2025-09-10,1.535346034747566
2025-09-11,1.5491676464098796
2025-09-12,1.5458758378144049
2025-09-15,1.5512911201441424
2025-09-16,1.5478240711507396
2025-09-17,1.551479665917713
2025-09-18,1.5415923212620368
2025-09-19,1.544358962882269
2025-09-22,1.545880344866342
2025-09-23,1.5458108398516746
2025-09-24,1.5499719320577323
2025-09-25,1.5546087310414196
2025-09-26,1.5517143341468012
2025-09-29,1.556383274694036
2025-09-30,1.5614299965449403
2025-10-09,1.5668249909500855
2025-10-10,1.5562651041485138
2025-10-13,1.553625711969847
2025-10-14,1.554615500569851
2025-10-15,1.5583974133704999
2025-10-16,1.560076019965137
2025-10-17,1.554593162036002
2025-10-20,1.5507669102912105
2025-10-21,1.552276361378601
2025-10-22,1.553455424080356
2025-10-23,1.554818230249649
2025-10-24,1.552774584833895
2025-10-27,1.5572957837368449
2025-10-28,1.551372332850746
2025-10-29,1.5608474258996208
2025-10-30,1.5629056245555748
2025-10-31,1.5589698154098293
2025-11-03,1.5610408349881713
2025-11-04,1.556518322581404
2025-11-05,1.5588137434828473
2025-11-06,1.5592913558753412
2025-11-07,1.564898535027942
2025-11-10,1.5750248699688223
2025-11-11,1.5747722085138516
2025-11-12,1.5705395765392758
2025-11-13,1.5741878887989862
2025-11-14,1.5702542100750927
2025-11-17,1.563012328774262
2025-11-18,1.5576837136449193
2025-11-19,1.5607763841512996
2025-11-20,1.5541813233402846
2025-11-21,1.550627233027212
2025-11-24,1.5477563799709122
2025-11-25,1.548307235732793
2025-11-26,1.5480330445023682
2025-11-27,1.5480897280480994
2025-11-28,1.548415477064855
2025-12-01,1.5487178865774252
2025-12-02,1.5497762512487243
2025-12-03,1.5494859439218103
2025-12-04,1.5490787369279635
2025-12-05,1.549041255029837
2025-12-08,1.5488721358402653
2025-12-09,1.5455781898529541
2025-12-10,1.544746432814566
2025-12-11,1.5435884112415996
2025-12-12,1.5454145985414125
2025-12-15,1.5457511695143493
2025-12-16,1.5444880071373825
2025-12-17,1.5464524281388379
2025-12-18,1.544944981954808
2025-12-19,1.5467195048167617
2025-12-22,1.547501053442753
2025-12-23,1.545845213022194
2025-12-24,1.5467806555188977
2025-12-25,1.5472222999686975
2025-12-26,1.5507840177406451
2025-12-29,1.5476697038968599
2025-12-30,1.5460205985615958
2025-12-31,1.5472800589148112
2026-01-05,1.5479152462931132
2026-01-06,1.5571274761631175
2026-01-07,1.5502024162933468
2026-01-08,1.5472529574365022
2026-01-09,1.5497839222059036
2026-01-12,1.5546842989595961
2026-01-13,1.5466464133684963
2026-01-14,1.5451860590300586
2026-01-15,1.5414005662492642
2026-01-16,1.5384426955324717
2026-01-19,1.5339272094173553
2026-01-20,1.5367890113231746
2026-01-21,1.537028798707976
2026-01-22,1.5368642599689448
2026-01-23,1.5355850599570589
2026-01-26,1.5309716011050427
2026-01-27,1.5296194568654182
2026-01-28,1.5312701823256187
2026-01-29,1.533418784822
2026-01-30,1.525811266316505
2026-02-02,1.5235626629402077
2026-02-03,1.526075712857416
2026-02-04,1.5303667838139372
2026-02-05,1.5313645170896333
2026-02-06,1.5293470357328192
2026-02-09,1.529469905992519
2026-02-10,1.528925656190009
2026-02-11,1.5284268764966664
2026-02-12,1.5263942419025638
2026-02-13,1.5211889922298172
2026-02-24,1.519496781950751
2026-02-25,1.5214290299605877
2026-02-26,1.5160362393461664
2026-02-27,1.5153025924802344
2026-03-02,1.5182208139778905
2026-03-03,1.5183760210272519
2026-03-04,1.5184058461232854
2026-03-05,1.5164974821925197
2026-03-06,1.5159341749192705
2026-03-09,1.5197890902226814
2026-03-10,1.516450762792717
2026-03-11,1.5194976680902463
2026-03-12,1.5205707358677756
2026-03-13,1.5200764551257315
2026-03-16,1.5234550607550978
2026-03-17,1.5220997520574853
2026-03-18,1.5202871368226334
2026-03-19,1.521244281024558
2026-03-20,1.5233318789941135
2026-03-23,1.5164640143767367
2026-03-24,1.5151431566906415
2026-03-25,1.5145996873036551
2026-03-26,1.5145451248481638
2026-03-27,1.5168996612688137
2026-03-30,1.5167448037833775
2026-03-31,1.5155912830892986
2026-04-01,1.5152970949596507
2026-04-02,1.5142800872382363
2026-04-03,1.5110097704500034
2026-04-07,1.5103492847195317
2026-04-08,1.5106789846262298
2026-04-09,1.513094080558726
2026-04-10,1.515829906623243
2026-04-13,1.5150450122437156
2026-04-14,1.5173428824079254
2026-04-15,1.5188064840192348
2026-04-16,1.5211556561322788
2026-04-17,1.5182787839743883
2026-04-20,1.5211265244228735
2026-04-21,1.522127479050574
2026-04-22,1.5217866171859884
2026-04-23,1.5206670707535848
2026-04-24,1.5184541797647606
2026-04-27,1.5183038432960885
2026-04-28,1.517511827381661
2026-04-29,1.5192524249193862
2026-04-30,1.5196335160237802
2026-05-06,1.523468815620657
2026-05-07,1.5218979356657747
2026-05-08,1.5211041274666313
2026-05-11,1.5266004058029337
2026-05-12,1.5233824884463323
2026-05-13,1.5228914293859268
2026-05-14,1.513977305594367
2026-05-15,1.511413210473767
2026-05-18,1.5074837540294603
2026-05-19,1.5074638402206728
2026-05-20,1.5060599104035708
2026-05-21,1.5051470765484827
2026-05-22,1.5052709395411241
2026-05-25,1.5067943490025946
2026-05-26,1.5057662672722345
2026-05-27,1.5053585411560912
2026-05-28,1.504222793274044
2026-05-29,1.5014746447753937
2026-06-01,1.5013733297871537
2026-06-02,1.5013290059935505
2026-06-03,1.501418134122654
2026-06-04,1.5009235498555495
2026-06-05,1.5009354742956864
2026-06-08,1.5022694645307788
2026-06-09,1.500912483300841
2026-06-10,1.5003950679579088
2026-06-11,1.5011731702722437
2026-06-12,1.5001515544581188
2026-06-15,1.4964313595936463
2026-06-16,1.4949659280456196
2026-06-17,1.4943460149954395
2026-06-18,1.4911573373591287
2026-06-22,1.4936129279623864
2026-06-23,1.491192324764094
2026-06-24,1.4937191473048075
2026-06-25,1.4965870327524409
2026-06-26,1.4925356722101846
2026-06-29,1.4927111408661389
2026-06-30,1.4939389185109428
2026-07-01,1.4972649353754843
2026-07-02,1.494450532829343
2026-07-03,1.4967618051224025
2026-07-06,1.4990686027602265
2026-07-07,1.495086252486473
2026-07-08,1.4922612334751215
2026-07-09,1.4956322072202968
2026-07-10,1.49512521849491
2026-07-13,1.4944765783018117
2026-07-14,1.4954825973651276
2026-07-15,1.5036796709686238
2026-07-16,1.5040455884452384
2026-07-17,1.495701899170673
2026-07-20,1.504577023674643
2026-07-21,1.5005535984673304
2026-07-22,1.5039028969954664
2026-07-23,1.4973995489686196
2026-07-24,1.4865787758801683
2026-07-27,1.487836278614709
2026-07-28,1.495052090421458
2026-07-29,1.5058289788056243
2026-07-30,1.5263507366680753
2026-07-31,1.5209557293971798
2026-08-03,1.5158451715422248
2026-08-04,1.4996705385007865
2026-08-05,1.5010062472641144
2026-08-06,1.4926730767837015
2026-08-07,1.496037649978978
2026-08-10,1.5010916221756407
2026-08-11,1.4902388403317515
2026-08-12,1.4938936881621177
2026-08-13,1.4881178794084564
2026-08-14,1.4852180122692649
2026-08-17,1.4853348912835584
2026-08-18,1.485008713701192
2026-08-19,1.4823292371386105
2026-08-20,1.4829159944800463
2026-08-21,1.4809078582461972
2026-08-24,1.480924207435983
2026-08-25,1.4802963499703325
2026-08-26,1.4809520168813461
2026-08-27,1.4807724053038662
2026-08-28,1.4822556776034188
2026-08-31,1.4830030926047197
2026-09-01,1.4847466639546951
2026-09-02,1.4815539305277932
2026-09-03,1.4822026572620075
2026-09-04,1.4857020191081365
2026-09-07,1.4801795709341974
2026-09-08,1.481119042481142
2026-09-09,1.4797224774332558
2026-09-10,1.4788126115534266
2026-09-11,1.476554953145257
2026-09-14,1.4764515314941085
2026-09-15,1.4740456243294051
2026-09-16,1.4722616109008773
2026-09-17,1.472096003321774
2026-09-18,1.4718427173521111
2026-09-21,1.4732419242877295
2026-09-22,1.4732713482454702
2026-09-23,1.4730423985528547
2026-09-24,1.4728870116445125
