date,equity
2018-10-16,1.0
2018-10-17,1.0
2018-10-18,1.0
2018-10-19,1.0
2018-10-22,1.0
2018-10-23,1.0
2018-10-24,1.0
2018-10-25,1.0
2018-10-26,1.0
2018-10-29,1.0
2018-10-30,1.0
2018-10-31,1.0
2018-11-01,1.0
2018-11-02,1.0
2018-11-05,1.0
2018-11-06,1.0
2018-11-07,1.0
2018-11-08,1.0
2018-11-09,1.0
2018-11-12,1.0
2018-11-13,0.9995166666666667
2018-11-14,0.9982848113345573
2018-11-15,1.0043841539435352
2018-11-16,1.0080639402845286
2018-11-19,1.0128289430939137
2018-11-20,0.9996040945241867
2018-11-21,1.0037696376669816
2018-11-22,1.0023161286415496
2018-11-23,0.9892621520605293
2018-11-26,0.9906443981848393
2018-11-27,0.9917154196933292
2018-11-28,0.9956474643096801
2018-11-29,0.993382645050883
2018-11-30,0.9946751971737706
2018-12-03,1.0019148652132617
2018-12-04,1.0016722678083039
2018-12-05,1.0044628301417518
2018-12-06,0.9899884909375939
2018-12-07,0.9926074190074015
2018-12-10,0.9896624761014658
2018-12-11,0.9898340150547866
2018-12-12,0.991310930378645
2018-12-13,0.997198057259093
2018-12-14,0.9896806880777108
2018-12-17,0.9887085141669838
2018-12-18,0.9868451953937919
2018-12-19,0.9833344127938146
2018-12-20,0.9797728777826855
2018-12-21,0.9792897947567463
2018-12-24,0.9793219303978351
2018-12-25,0.9787034952820872
2018-12-26,0.9786706335875094
2018-12-27,0.9789215661152534
2018-12-28,0.9798110939920083
2019-01-02,0.9789487799655419
2019-01-03,0.9786315910458774
2019-01-04,0.9787991432470677
2019-01-07,0.9804705055986456
2019-01-08,0.9803120448251005
2019-01-09,0.9802013050690206
2019-01-10,0.9804104345889598
2019-01-11,0.9804085545199943
2019-01-14,0.9792268606121904
2019-01-15,0.985668914973524
2019-01-16,0.9836480534396819
2019-01-17,0.980877260184203
2019-01-18,0.9930905353764975
2019-01-21,0.9967999149164178
2019-01-22,0.9872243058003639
2019-01-23,0.9902720294563231
2019-01-24,0.994957650585563
2019-01-25,1.000259879291969
2019-01-28,1.0013723087030657
2019-01-29,1.005981066494777
2019-01-30,1.0029630019259839
2019-01-31,1.0101544541507503
2019-02-01,1.0175480368129692
2019-02-11,1.0298481325890934
2019-02-12,1.0349059665338813
2019-02-13,1.0482923073370698
2019-02-14,1.0529895174305544
2019-02-15,1.0383215096392056
2019-02-18,1.0656485291684037
2019-02-19,1.0626163055546949
2019-02-20,1.070803694341972
2019-02-21,1.0728545231581612
2019-02-22,1.0913100929561281
2019-02-25,1.1365059904923491
2019-02-26,1.1292514235360547
2019-02-27,1.1228795544505106
2019-02-28,1.1253993968847236
2019-03-01,1.1460953347605878
2019-03-04,1.1618702748567755
2019-03-05,1.1702635470748677
2019-03-06,1.1735386174836984
2019-03-07,1.1538972980680042
2019-03-08,1.1198229862505846
2019-03-11,1.1351520385945064
2019-03-12,1.1435378847730586
2019-03-13,1.1319611313500226
2019-03-14,1.1263137606377096
2019-03-15,1.1358776792303795
2019-03-18,1.1549981951642883
2019-03-19,1.1496639368586885
2019-03-20,1.1479278771965484
2019-03-21,1.1474465351388754
2019-03-22,1.1498016401818105
2019-03-25,1.1322837088113415
2019-03-26,1.1286109767489836
2019-03-27,1.1356855661625151
2019-03-28,1.135278846099303
2019-03-29,1.1489192496784377
2019-04-01,1.1595969889378142
2019-04-02,1.1564337162859784
2019-04-03,1.167625620521706
2019-04-04,1.1763198380950797
2019-04-08,1.1721229403729947
2019-04-09,1.1752860726018381
2019-04-10,1.1781590647653069
2019-04-11,1.1550697606818345
2019-04-12,1.1544700677927844
2019-04-15,1.152178589291791
2019-04-16,1.1664449126399428
2019-04-17,1.17296478109675
2019-04-18,1.1700072229698015
2019-04-19,1.176091869951826
2019-04-22,1.1664510004466007
2019-04-23,1.1644074619218578
2019-04-24,1.1656658381182363
2019-04-25,1.158799034957886
2019-04-26,1.1527553698416422
2019-04-29,1.157063623180121
2019-04-30,1.1564941329835683
2019-05-06,1.1455429535158381
2019-05-07,1.147397575281316
2019-05-08,1.1440469019681985
2019-05-09,1.143785279580684
2019-05-10,1.1467447903321288
2019-05-13,1.1466883409457824
2019-05-14,1.1464241715394108
2019-05-15,1.1489324176877296
2019-05-16,1.1489713874232452
2019-05-17,1.146163130788625
2019-05-20,1.1417762128403313
2019-05-21,1.1445326532898605
2019-05-22,1.1439050564522013
2019-05-23,1.1404664756727452
2019-05-24,1.139689271984841
2019-05-27,1.1404989474029172
2019-05-28,1.1411916705812835
2019-05-29,1.1399408972205167
2019-05-30,1.141374929861573
2019-05-31,1.1419396945089029
2019-06-03,1.142531934045238
2019-06-04,1.140221570770266
2019-06-05,1.140081297011382
2019-06-06,1.133338201867491
2019-06-10,1.1377833642282746
2019-06-11,1.1441989679094506
2019-06-12,1.1401259830606094
2019-06-13,1.1362672922197132
2019-06-14,1.130892265154759
2019-06-17,1.1309045016777817
2019-06-18,1.1312914684415232
2019-06-19,1.1381880824405295
2019-06-20,1.1566710773803355
2019-06-21,1.1569852835999797
2019-06-24,1.1596839484010877
2019-06-25,1.1535513136276219
2019-06-26,1.1546205813047585
2019-06-27,1.167581959034104
2019-06-28,1.1666173304721925
2019-07-01,1.188462511978453
2019-07-02,1.1895928918334508
2019-07-03,1.1799030580558472
2019-07-04,1.1769259287495233
2019-07-05,1.1829376253042427
2019-07-08,1.1622273159042538
2019-07-09,1.162640546528029
2019-07-10,1.165137185435084
2019-07-11,1.1623422267861412
2019-07-12,1.1653621291415421
2019-07-15,1.1696003645290751
2019-07-16,1.1654106116384957
2019-07-17,1.1668637289357617
2019-07-18,1.1617558638509782
2019-07-19,1.166207741727395
2019-07-22,1.1655135720781762
2019-07-23,1.1688120236396926
2019-07-24,1.1704442438763678
2019-07-25,1.174675709367331
2019-07-26,1.1793848951460475
2019-07-29,1.1792879550051703
2019-07-30,1.1795587595387897
2019-07-31,1.1758713900962159
2019-08-01,1.1746035525042338
2019-08-02,1.1692311201299228
2019-08-05,1.1595619031159357
2019-08-06,1.1572905645959777
2019-08-07,1.1568662179008584
2019-08-08,1.158049386066259
2019-08-09,1.1547812514204898
2019-08-12,1.1580580129927212
2019-08-13,1.1569079738313113
2019-08-14,1.158202722918308
2019-08-15,1.160291722628174
2019-08-16,1.1606412046105656
2019-08-19,1.1659876402917533
2019-08-20,1.1680884197023054
2019-08-21,1.1676659879894835
2019-08-22,1.1696017211100076
2019-08-23,1.1733861509404528
2019-08-26,1.1688560092366234
2019-08-27,1.1771231721228788
2019-08-28,1.1765553001212499
2019-08-29,1.174255591715237
2019-08-30,1.1761200991627794
2019-09-02,1.1866549859850848
2019-09-03,1.1877136985502144
2019-09-04,1.188181390634108
2019-09-05,1.1917223691562189
2019-09-06,1.1938853786382362
2019-09-09,1.198000448684992
2019-09-10,1.1951451665226958
2019-09-11,1.1862026671830714
2019-09-12,1.190338969114713
2019-09-16,1.186281564130265
2019-09-17,1.1743314091864587
2019-09-18,1.1741630580236235
2019-09-19,1.175845136577811
2019-09-20,1.1769786889157006
2019-09-23,1.1699543985534087
2019-09-24,1.1712025521132177
2019-09-25,1.1681459223231725
2019-09-26,1.1655549879178195
2019-09-27,1.165392826396767
2019-09-30,1.1632972351166335
2019-10-08,1.1640217217141504
2019-10-09,1.1638934715246876
2019-10-10,1.1666035595324293
2019-10-11,1.1698419288893516
2019-10-14,1.1727362626007225
2019-10-15,1.1741586697274624
2019-10-16,1.172558788889888
2019-10-17,1.1713706477922616
2019-10-18,1.1672522224252069
2019-10-21,1.1699357663300738
2019-10-22,1.1712193253541292
2019-10-23,1.1681869750775629
2019-10-24,1.1682274609846237
2019-10-25,1.173908423454568
2019-10-28,1.174432109925867
2019-10-29,1.1744889844176178
2019-10-30,1.1739509301459017
2019-10-31,1.1722536437683024
2019-11-01,1.1790729183258908
2019-11-04,1.1830040456832913
2019-11-05,1.1872293350772805
2019-11-06,1.184885739673494
2019-11-07,1.1847550563410476
2019-11-08,1.1844426828104402
2019-11-11,1.1753326775871924
2019-11-12,1.176313024455047
2019-11-13,1.1800540482956643
2019-11-14,1.180298400197497
2019-11-15,1.1758180729101113
2019-11-18,1.175805237704764
2019-11-19,1.1812364763629106
2019-11-20,1.1774657993899869
2019-11-21,1.1765758620345068
2019-11-22,1.1702003612787053
2019-11-25,1.1746154177154617
2019-11-26,1.1747264323302637
2019-11-27,1.1703061878531935
2019-11-28,1.169280146081656
2019-11-29,1.1667030992849996
2019-12-02,1.1703939208647283
2019-12-03,1.17255655956678
2019-12-04,1.1711859393915138
2019-12-05,1.1732748122854317
2019-12-06,1.1758866336544638
2019-12-09,1.1779261459477377
2019-12-10,1.1791633724179966
2019-12-11,1.177984002511883
2019-12-12,1.1757612817110192
2019-12-13,1.1820628853198316
2019-12-16,1.1868308954964535
2019-12-17,1.1943219484377323
2019-12-18,1.1909165521892653
2019-12-19,1.1930798117719104
2019-12-20,1.1900975530230733
2019-12-23,1.1812811884858025
2019-12-24,1.18607992117841
2019-12-25,1.1885943669989936
2019-12-26,1.1944004728996338
2019-12-27,1.1933772654245969
2019-12-30,1.2043007634150409
2019-12-31,1.207794191345815
2020-01-02,1.2190101567575893
2020-01-03,1.2192300162233385
2020-01-06,1.2135536098128177
2020-01-07,1.218553053824751
2020-01-08,1.2085584815068104
2020-01-09,1.2169666628994669
2020-01-10,1.2125098554223912
2020-01-13,1.2193280585222108
2020-01-14,1.216873241590202
2020-01-15,1.2122479131965664
2020-01-16,1.210837398031917
2020-01-17,1.2126938387792119
2020-01-20,1.2191579274002167
2020-01-21,1.2083824792087408
2020-01-22,1.2135491659835156
2020-01-23,1.2056329549186426
2020-02-03,1.1931781895662494
2020-02-04,1.2028741502174694
2020-02-05,1.2107298625725869
2020-02-06,1.2141643259975188
2020-02-07,1.2113458812155513
2020-02-10,1.2126820992011889
2020-02-11,1.2115650068445138
2020-02-12,1.2152189853632893
2020-02-13,1.2160869188747558
2020-02-14,1.216327923575304
2020-02-17,1.2260967977785127
2020-02-18,1.2275311806910032
2020-02-19,1.2276769941079422
2020-02-20,1.2377222321028456
2020-02-21,1.2403178933400332
2020-02-24,1.243211385963948
2020-02-25,1.249496733676406
2020-02-26,1.2384096373140254
2020-02-27,1.2394051351419557
2020-02-28,1.2228230321601057
2020-03-02,1.24452331154774
2020-03-03,1.2468277862753532
2020-03-04,1.2505085795066917
2020-03-05,1.2578476322291268
2020-03-06,1.2434908719488735
2020-03-09,1.2223302236550404
2020-03-10,1.230619717781108
2020-03-11,1.2263727139256562
2020-03-12,1.2194584677951643
2020-03-13,1.2167833970132482
2020-03-16,1.206586943114396
2020-03-17,1.2069302109644855
2020-03-18,1.2076272390093856
2020-03-19,1.2072788615031225
2020-03-20,1.2058451417523761
2020-03-23,1.2016681840394225
2020-03-24,1.2013241277368836
2020-03-25,1.2027562960644824
2020-03-26,1.2054396585335392
2020-03-27,1.203761955318115
2020-03-30,1.204121632163572
2020-03-31,1.2051905588051777
2020-04-01,1.2026079773905245
2020-04-02,1.2024900292115046
2020-04-03,1.2034075785623073
2020-04-07,1.210122852000004
2020-04-08,1.208340102601003
2020-04-09,1.2070776043947407
2020-04-10,1.2039132948532383
2020-04-13,1.2034947646389338
2020-04-14,1.2101764717242216
2020-04-15,1.2037680121693426
2020-04-16,1.2051596765140913
2020-04-17,1.2115655931481661
2020-04-20,1.2159714298800246
2020-04-21,1.208451312350581
2020-04-22,1.2144732694977662
2020-04-23,1.214839886339454
2020-04-24,1.210084207539267
2020-04-27,1.2109317583004977
2020-04-28,1.2229866018307611
2020-04-29,1.221557950906462
2020-04-30,1.2274885253170789
2020-05-06,1.2294761069725844
2020-05-07,1.2271646148915627
2020-05-08,1.231074482378112
2020-05-11,1.2288171394233305
2020-05-12,1.2313896640844018
2020-05-13,1.232239447316257
2020-05-14,1.223399099038204
2020-05-15,1.222303028640806
2020-05-18,1.2241645822036726
2020-05-19,1.2304657275688877
2020-05-20,1.2261287720557057
2020-05-21,1.2226198038486442
2020-05-22,1.2129101542709715
2020-05-25,1.2161079572292124
2020-05-26,1.2191130702321127
2020-05-27,1.2180178659069705
2020-05-28,1.2165107497974261
2020-05-29,1.2206481867358825
2020-06-01,1.22722563065681
2020-06-02,1.2257867420309234
2020-06-03,1.2247679724008547
2020-06-04,1.2232718316578386
2020-06-05,1.2282730887337059
2020-06-08,1.231548849652751
2020-06-09,1.2359485028534993
2020-06-10,1.2339717992411432
2020-06-11,1.228690454516646
2020-06-12,1.2289486254174466
2020-06-15,1.221171467614181
2020-06-16,1.227604189462721
2020-06-17,1.226921698813469
2020-06-18,1.2323668218099337
2020-06-19,1.2416471938804379
2020-06-22,1.2418291715866754
2020-06-23,1.2477065843552657
2020-06-24,1.2516383543548202
2020-06-29,1.2534153379527064
2020-06-30,1.2648370816914951
2020-07-01,1.2765666635210389
2020-07-02,1.2896949746248763
2020-07-03,1.303130502878471
2020-07-06,1.3637520923360034
2020-07-07,1.3709027163148426
2020-07-08,1.3871349918984879
2020-07-09,1.4075876914058347
2020-07-10,1.3867632269447845
2020-07-13,1.4191951399028957
2020-07-14,1.4140387916626935
2020-07-15,1.4052842054690704
2020-07-16,1.3467339171755695
2020-07-17,1.357424039918908
2020-07-20,1.3899654346965176
2020-07-21,1.3937820574576092
2020-07-22,1.3993426412361898
2020-07-23,1.4076864501969988
2020-07-24,1.3731922486653523
2020-07-27,1.3827669212579854
2020-07-28,1.3865395616429077
2020-07-29,1.3963304607481135
2020-07-30,1.4016722785046556
2020-07-31,1.4062361472315017
2020-08-03,1.4173035523461806
2020-08-04,1.4119617777599136
2020-08-05,1.418983259061682
2020-08-06,1.4150110004230032
2020-08-07,1.4150157498699478
2020-08-10,1.4120733923355062
2020-08-11,1.4034316947358865
2020-08-12,1.3933821034648461
2020-08-13,1.3959372722842605
2020-08-14,1.3986710115824976
2020-08-17,1.4071180299531676
2020-08-18,1.4051671932777738
2020-08-19,1.4016119472221016
2020-08-20,1.3899438942897193
2020-08-21,1.392856608535845
2020-08-24,1.3959815564948033
2020-08-25,1.3941402947919725
2020-08-26,1.391058760273849
2020-08-27,1.3912830494160437
2020-08-28,1.4002596674173962
2020-08-31,1.3988637307859038
2020-09-01,1.402258274530629
2020-09-02,1.4036248404395513
2020-09-03,1.40469545235333
2020-09-04,1.3991258284202883
2020-09-07,1.3859963280608245
2020-09-08,1.388279700401386
2020-09-09,1.3798796410996887
2020-09-10,1.382799448060352
2020-09-11,1.3875636828534608
2020-09-14,1.390332957797739
2020-09-15,1.3951751706554503
2020-09-16,1.397301331012344
2020-09-17,1.3974421217846076
2020-09-18,1.402540944798957
2020-09-21,1.3957137222590343
2020-09-22,1.3874893589993438
2020-09-23,1.3895060092532505
2020-09-24,1.379023067025822
2020-09-25,1.3775257087745616
2020-09-28,1.3806516170195207
2020-09-29,1.381213010842446
2020-09-30,1.383943263857906
2020-10-09,1.3931764975189354
2020-10-12,1.4037507625980596
2020-10-13,1.4135541676638255
2020-10-14,1.4095516480218302
2020-10-15,1.4043134617555617
2020-10-16,1.3992358149703414
2020-10-19,1.3926132777104745
2020-10-20,1.4038764604680152
2020-10-21,1.4000361330230449
2020-10-22,1.3981781569703011
2020-10-23,1.3879352576882422
2020-10-26,1.3895282775568496
2020-10-27,1.3899349341034992
2020-10-28,1.3967009039964042
2020-10-29,1.4020777592991254
2020-10-30,1.3961793248266117
2020-11-02,1.4093467855059851
2020-11-03,1.4127718082402714
2020-11-04,1.4192594240668943
2020-11-05,1.4279951153524106
2020-11-06,1.4315720049457636
2020-11-09,1.4423173453820872
2020-11-10,1.4405878637862688
2020-11-11,1.4305590068681961
2020-11-12,1.4306780862603987
2020-11-13,1.4187899204693473
2020-11-16,1.4304415509141404
2020-11-17,1.4254969729921798
2020-11-18,1.4249537943489377
2020-11-19,1.429690719555639
2020-11-20,1.4348779080321232
2020-11-23,1.4410990515497515
2020-11-24,1.4366234931776862
2020-11-25,1.424850744395536
2020-11-26,1.4311312988587388
2020-11-27,1.4398217753541793
2020-11-30,1.4386097754038045
2020-12-01,1.4530797022891968
2020-12-02,1.454319262159933
2020-12-03,1.4454263040152155
2020-12-04,1.4426319256982878
2020-12-07,1.4352527063886809
2020-12-08,1.4314446350239016
2020-12-09,1.4220626881983764
2020-12-10,1.4244299244874923
2020-12-11,1.422654495389371
2020-12-14,1.4259593331748843
2020-12-15,1.4280168611373478
2020-12-16,1.4316437047240373
2020-12-17,1.4373505462217777
2020-12-18,1.4361941437714856
2020-12-21,1.4473452862594516
2020-12-22,1.4436962050287403
2020-12-23,1.4508091312146565
2020-12-24,1.4489692833917784
2020-12-25,1.457930289797949
2020-12-28,1.4632690266427826
2020-12-29,1.4523266490071975
2020-12-30,1.4706058466162957
2020-12-31,1.4873352280506116
2021-01-04,1.5098450575656757
2021-01-05,1.5341730587146443
2021-01-06,1.5374724931483075
2021-01-07,1.5656733824276974
2021-01-08,1.5576971621924522
2021-01-11,1.544440900329324
2021-01-12,1.5755037880065763
2021-01-13,1.570879559420304
2021-01-14,1.5406890135284854
2021-01-15,1.5342523866980196
2021-01-18,1.5446610340888878
2021-01-19,1.5269072186389514
2021-01-20,1.5339968420648538
2021-01-21,1.545923081647957
2021-01-22,1.5429846385102401
2021-01-25,1.548891875686031
2021-01-26,1.5305236835094322
2021-01-27,1.5392531619072678
2021-01-28,1.5208468056368112
2021-01-29,1.515624235829803
2021-02-01,1.5206985512563578
2021-02-02,1.5250477513671798
2021-02-03,1.5283601390981862
2021-02-04,1.5274444299576493
2021-02-05,1.5281455205795835
2021-02-08,1.5383759816769778
2021-02-09,1.546743952067171
2021-02-10,1.567031695290561
2021-02-18,1.5606589846061396
2021-02-19,1.5606152497166919
2021-02-22,1.5437971136366297
2021-02-23,1.5368729674415558
2021-02-24,1.523395847139933
2021-02-25,1.5385268762110766
2021-02-26,1.5187884548402513
2021-03-01,1.527661252052645
2021-03-02,1.5199172113010302
2021-03-03,1.5299704929913438
2021-03-04,1.5201589915721314
2021-03-05,1.5116520837643572
2021-03-08,1.5086671295545424
2021-03-09,1.5070692102059733
2021-03-10,1.5021490146469076
2021-03-11,1.5102918720270881
2021-03-12,1.5204142028059655
2021-03-15,1.5213896711639892
2021-03-16,1.5223757017847643
2021-03-17,1.51628316755861
2021-03-18,1.516839386130188
2021-03-19,1.5110487345930617
2021-03-22,1.5162546316489618
2021-03-23,1.5097802330744787
2021-03-24,1.5052384861552373
2021-03-25,1.50438552241947
2021-03-26,1.5058388766712272
2021-03-29,1.507508598578809
2021-03-30,1.5080865724380847
2021-03-31,1.5080982283840205
2021-04-01,1.5094145458676116
2021-04-02,1.512542742170827
2021-04-06,1.5077853216296566
2021-04-07,1.502320048286688
2021-04-08,1.5020373973266912
2021-04-09,1.4921701724202168
2021-04-12,1.490280270043904
2021-04-13,1.4883216009039082
2021-04-14,1.4891846866459668
2021-04-15,1.4863701433263232
2021-04-16,1.487348229128251
2021-04-19,1.496825084977583
2021-04-20,1.4974244695103194
2021-04-21,1.4989771266526237
2021-04-22,1.500323767447841
2021-04-23,1.5058149928538926
2021-04-26,1.5013618089017677
2021-04-27,1.5027528259481775
2021-04-28,1.513406801528661
2021-04-29,1.5188514316338366
2021-04-30,1.5169225628595384
2021-05-06,1.5087398091825859
2021-05-07,1.4996527437881593
2021-05-10,1.506455026397883
2021-05-11,1.5062918557396539
2021-05-12,1.5092900842216523
2021-05-13,1.5038388803619973
2021-05-14,1.508699078753877
2021-05-17,1.5145854940931407
2021-05-18,1.5137700173400364
2021-05-19,1.510914965867449
2021-05-20,1.5086013926661497
2021-05-21,1.5042959856606797
2021-05-24,1.5075118978427404
2021-05-25,1.5227110447212435
2021-05-26,1.5229828123569955
2021-05-27,1.523532598056477
2021-05-28,1.5250382029108172
2021-05-31,1.5287006311776612
2021-06-01,1.5308522479949669
2021-06-02,1.521367084872215
2021-06-03,1.5178821049603293
2021-06-04,1.521129649428198
2021-06-07,1.5208785953616637
2021-06-08,1.5183475222570773
2021-06-09,1.5204101456341976
2021-06-10,1.526667998963297
2021-06-11,1.5226905449508454
2021-06-15,1.5212283535549378
2021-06-16,1.5060298547303665
2021-06-17,1.511194893265048
2021-06-18,1.5162187149515962
2021-06-21,1.516630786062964
2021-06-22,1.5151296811963864
2021-06-23,1.5180038276249639
2021-06-24,1.5180690761916091
2021-06-25,1.519191718530585
2021-06-28,1.5231371761822352
2021-06-29,1.5198289761780475
2021-06-30,1.5210668684400894
2021-07-01,1.5162371045318546
2021-07-02,1.5046343947034921
2021-07-05,1.5091892809761376
2021-07-06,1.5073180635344134
2021-07-07,1.5119769324809984
2021-07-08,1.5096897539891323
2021-07-09,1.5113187557644048
2021-07-12,1.513436135665334
2021-07-13,1.5104298657075683
2021-07-14,1.5015456239861014
2021-07-15,1.5073466401847675
2021-07-16,1.5003777700584215
2021-07-19,1.5031093355450738
2021-07-20,1.500496110469257
2021-07-21,1.5084187891559664
2021-07-22,1.5065280963524774
2021-07-23,1.5059961813198377
2021-07-26,1.4940659871367576
2021-07-27,1.4846410029313817
2021-07-28,1.479019924626873
2021-07-29,1.484255749655627
2021-07-30,1.487889997401559
2021-08-02,1.497844051457982
2021-08-03,1.4962114202470214
2021-08-04,1.5046347229803962
2021-08-05,1.5068326934132183
2021-08-06,1.5041530816760826
2021-08-09,1.5058198902464421
2021-08-10,1.5081264320549812
2021-08-11,1.5046819674242264
2021-08-12,1.5010850530729363
2021-08-13,1.49907750964237
2021-08-16,1.5011430666433476
2021-08-17,1.4942763454295964
2021-08-18,1.5030352718880315
2021-08-19,1.4953142042723615
2021-08-20,1.4924319263518302
2021-08-23,1.4951368083631738
2021-08-24,1.4988838538103642
2021-08-25,1.5002847566241249
2021-08-26,1.4965245038039696
2021-08-27,1.49865583267193
2021-08-30,1.5018367860220458
2021-08-31,1.5110738177342977
2021-09-01,1.5129956109431464
2021-09-02,1.5246655874551118
2021-09-03,1.5213719861859978
2021-09-06,1.5285369678735903
2021-09-07,1.5361079989875415
2021-09-08,1.54008857709947
2021-09-09,1.5534839730654568
2021-09-10,1.552919482165192
2021-09-13,1.5616533140884612
2021-09-14,1.5401054530589813
2021-09-15,1.531035808500683
2021-09-16,1.5279199670868922
2021-09-17,1.5307189300081312
2021-09-22,1.5453432242388647
2021-09-23,1.5521749634098823
2021-09-24,1.542600773785278
2021-09-27,1.5385656263915035
2021-09-28,1.5469244121799302
2021-09-29,1.5396778296101579
2021-09-30,1.5443192864089619
2021-10-08,1.5500085489284623
2021-10-11,1.546050965583037
2021-10-12,1.5404208547026916
2021-10-13,1.5447490856588375
2021-10-14,1.539227733497692
2021-10-15,1.5375675802099276
2021-10-18,1.5246094435793305
2021-10-19,1.5271649330685988
2021-10-20,1.5259044348559572
2021-10-21,1.5228861980780284
2021-10-22,1.529015183738115
2021-10-25,1.5308258717185033
2021-10-26,1.5269676381963035
2021-10-27,1.5210115152060726
2021-10-28,1.5191799403622677
2021-10-29,1.5293046727013133
2021-11-01,1.5282359899623947
2021-11-02,1.5267749948434628
2021-11-03,1.5191863769881617
2021-11-04,1.5251713260408044
2021-11-05,1.5207823970301344
2021-11-08,1.5222200286199337
2021-11-09,1.522054155938658
2021-11-10,1.517740692832583
2021-11-11,1.5195921145212286
2021-11-12,1.5197495164388308
2021-11-15,1.5173673161523185
2021-11-16,1.5130444197504997
2021-11-17,1.5118244889750039
2021-11-18,1.5099545015831077
2021-11-19,1.5145482729683284
2021-11-22,1.5119328273849109
2021-11-23,1.5118815893126427
2021-11-24,1.5110049595434472
2021-11-25,1.507889941066416
2021-11-26,1.5040220757850336
2021-11-29,1.5052061483805226
2021-11-30,1.5036956109919397
2021-12-01,1.5055629943511515
2021-12-02,1.5065017210559712
2021-12-03,1.5180265617293178
2021-12-06,1.5143783883005588
2021-12-07,1.5157887276785431
2021-12-08,1.518350637305938
2021-12-09,1.5272140238394816
2021-12-10,1.518949428356751
2021-12-13,1.5267745042431597
2021-12-14,1.5160144032603875
2021-12-15,1.5130182184610905
2021-12-16,1.5209169828716662
2021-12-17,1.5115171849602151
2021-12-20,1.505004583490563
2021-12-21,1.5131784249319453
2021-12-22,1.5096352802088733
2021-12-23,1.514818705634769
2021-12-24,1.5138549124343748
2021-12-27,1.5174073145923355
2021-12-28,1.5150414232831106
2021-12-29,1.5050605891749111
2021-12-30,1.5077626337060452
2021-12-31,1.5114976457432627
2022-01-04,1.5161387847748546
2022-01-05,1.511359147831168
2022-01-06,1.5069061957083407
2022-01-07,1.5157317418049256
2022-01-10,1.5225108598196748
2022-01-11,1.517783752174332
2022-01-12,1.5124984794583693
2022-01-13,1.5034405136435915
2022-01-14,1.4925733511008068
2022-01-17,1.4924216641199055
2022-01-18,1.4968703796935414
2022-01-19,1.4972975351000084
2022-01-20,1.501914473350391
2022-01-21,1.4945248527630213
2022-01-24,1.4930801420934074
2022-01-25,1.4845294141638201
2022-01-26,1.4845341254317281
2022-01-27,1.4825608758445064
2022-01-28,1.4788073471403398
2022-02-07,1.4829776273878152
2022-02-08,1.488436914523571
2022-02-09,1.4890567522895066
2022-02-10,1.4982747560371101
2022-02-11,1.498336605998859
2022-02-14,1.485913109886143
2022-02-15,1.4790364100199616
2022-02-16,1.4816889953623533
2022-02-17,1.48062725198817
2022-02-18,1.4875787205392155
2022-02-21,1.4857833104207605
2022-02-22,1.4809609749074335
2022-02-23,1.4774090872381673
2022-02-24,1.4728918226828212
2022-02-25,1.4699985322849374
2022-02-28,1.4728944960652246
2022-03-01,1.475665035009019
2022-03-02,1.476984893446965
2022-03-03,1.4764372834833432
2022-03-04,1.4721949642193206
2022-03-07,1.467638917056049
2022-03-08,1.4600050650045358
2022-03-09,1.459532337472592
2022-03-10,1.4608963156488792
2022-03-11,1.4613086994448692
2022-03-14,1.4566379060678747
2022-03-15,1.44958060640348
2022-03-16,1.4529469671306532
2022-03-17,1.4537160435256458
2022-03-18,1.4545954155470273
2022-03-21,1.4571862323396227
2022-03-22,1.4563717677473862
2022-03-23,1.453480722696514
2022-03-24,1.4528126492163378
2022-03-25,1.4514730553144612
2022-03-28,1.452480288715375
2022-03-29,1.4554231757166098
2022-03-30,1.4560149721480407
2022-03-31,1.4560529626615406
2022-04-01,1.4615978775392375
2022-04-06,1.4660145911895592
2022-04-07,1.4573003318932145
2022-04-08,1.4640782878233802
2022-04-11,1.4562653681906497
2022-04-12,1.4545425561246803
2022-04-13,1.4565921648007323
2022-04-14,1.467330262034775
2022-04-15,1.4641288659724292
2022-04-18,1.4509604549752741
2022-04-19,1.450655817090374
2022-04-20,1.435321294691003
2022-04-21,1.4283628105785313
2022-04-22,1.4319002036592359
2022-04-25,1.4173773021188492
2022-04-26,1.4166708847120277
2022-04-27,1.416957072624557
2022-04-28,1.4170614541832889
2022-04-29,1.4210729151119337
2022-05-05,1.417898529527524
2022-05-06,1.4067638606864157
2022-05-09,1.4052134910660106
2022-05-10,1.4094832576161809
2022-05-11,1.4073365630491879
2022-05-12,1.4079675154669766
2022-05-13,1.4121812785482972
2022-05-16,1.4089065127333702
2022-05-17,1.4125191248623232
2022-05-18,1.4122632682529774
2022-05-19,1.4165979618753264
2022-05-20,1.4198781702963763
2022-05-23,1.4169152104858693
2022-05-24,1.4070357027235003
2022-05-25,1.412496042879341
2022-05-26,1.41517834628708
2022-05-27,1.4143464891748676
2022-05-30,1.4151684428603712
2022-05-31,1.4198096746561748
2022-06-01,1.4196552653350711
2022-06-02,1.4217803303552647
2022-06-06,1.4347013569551135
2022-06-07,1.4341252188342881
2022-06-08,1.4421494777635102
2022-06-09,1.4295769810524737
2022-06-10,1.442498043094308
2022-06-13,1.430252136685856
2022-06-14,1.435973810518015
2022-06-15,1.4427308973162265
2022-06-16,1.4371662298892285
2022-06-17,1.4454005770322622
2022-06-20,1.4492738762558486
2022-06-21,1.448966913491892
2022-06-22,1.439122251554067
2022-06-23,1.4504781170405074
2022-06-24,1.4601047501671212
2022-06-27,1.472577014912006
2022-06-28,1.4815083147885082
2022-06-29,1.4678162487885276
2022-06-30,1.4842531788931463
2022-07-01,1.4815290071319505
2022-07-04,1.4921797866875854
2022-07-05,1.490009218065091
2022-07-06,1.4690683447467079
2022-07-07,1.4716212164981697
2022-07-08,1.4741497796065177
2022-07-11,1.4663498451391823
2022-07-12,1.463060240117092
2022-07-13,1.462500564094721
2022-07-14,1.4598983738069693
2022-07-15,1.4487062911587767
2022-07-18,1.4517444732218043
2022-07-19,1.4492202922176372
2022-07-20,1.4520000329469225
2022-07-21,1.4509465716668433
2022-07-22,1.4516154980041125
2022-07-25,1.4511800402051138
2022-07-26,1.4496837458495335
2022-07-27,1.4485991261666713
2022-07-28,1.4493901287228828
2022-07-29,1.446858096413154
2022-08-01,1.4481631493936276
2022-08-02,1.4465286721392698
2022-08-03,1.4440335582062267
2022-08-04,1.4445714712330588
2022-08-05,1.4452323948737913
2022-08-08,1.4448913333167803
2022-08-09,1.4459218160310863
2022-08-10,1.4438964243662804
2022-08-11,1.448585033538731
2022-08-12,1.4471076007218198
2022-08-15,1.4435518302768051
2022-08-16,1.443582583827643
2022-08-17,1.4484444080098435
2022-08-18,1.444583474965577
2022-08-19,1.4441393904697524
2022-08-22,1.451059370738927
2022-08-23,1.4507106507682517
2022-08-24,1.443814988460357
2022-08-25,1.4532662214020218
2022-08-26,1.4476501886109152
2022-08-29,1.448306189152211
2022-08-30,1.446537025926945
2022-08-31,1.4444268528754511
2022-09-01,1.4426215506883036
2022-09-02,1.4397889560544894
2022-09-05,1.4447714682114952
2022-09-06,1.448863314476969
2022-09-07,1.4458635080331461
2022-09-08,1.4467842351383817
2022-09-09,1.4553529581300404
2022-09-13,1.4552916904020823
2022-09-14,1.4494268293227535
2022-09-15,1.4532304601972232
2022-09-16,1.4358642284120473
2022-09-19,1.4391975608394667
2022-09-20,1.434052256497881
2022-09-21,1.4337180065288437
2022-09-22,1.430648688214597
2022-09-23,1.42994534086509
2022-09-26,1.428913398968989
2022-09-27,1.431353379945018
2022-09-28,1.4295338253559644
2022-09-29,1.4275216154645285
2022-09-30,1.427377407923514
2022-10-10,1.4224844910344914
2022-10-11,1.4223102287856904
2022-10-12,1.4222848392989096
2022-10-13,1.4206892784919432
2022-10-14,1.4230396661856137
2022-10-17,1.4235787034719722
2022-10-18,1.4229388903956328
2022-10-19,1.4219834217649263
2022-10-20,1.4208471399231895
2022-10-21,1.4211938459763789
2022-10-24,1.4153292432990205
2022-10-25,1.4137225041554726
2022-10-26,1.4160777116315044
2022-10-27,1.415843671552504
2022-10-28,1.4119800097209811
2022-10-31,1.4135935637649117
2022-11-01,1.4154840819999468
2022-11-02,1.4176215364398177
2022-11-03,1.4154309024839011
2022-11-04,1.421583438779478
2022-11-07,1.4215595904445761
2022-11-08,1.4183122449883951
2022-11-09,1.4152414162072045
2022-11-10,1.410700371187783
2022-11-11,1.415780038441076
2022-11-14,1.4192362643877747
2022-11-15,1.4313003351537714
2022-11-16,1.42566136900061
2022-11-17,1.4232730935725908
2022-11-18,1.421165468005221
2022-11-21,1.4123798878750309
2022-11-22,1.419826716345223
2022-11-23,1.4207276812651173
2022-11-24,1.4170718704382097
2022-11-25,1.4317185173349871
2022-11-28,1.4229069956404214
2022-11-29,1.4446764471187958
2022-11-30,1.441063753584117
2022-12-01,1.4480441531487427
2022-12-02,1.4402000522694731
2022-12-05,1.468193592447123
2022-12-06,1.4694160502011293
2022-12-07,1.4644809007302129
2022-12-08,1.4651541296199317
2022-12-09,1.4771815325402897
2022-12-12,1.4641790298069006
2022-12-13,1.4655166409722131
2022-12-14,1.4701283010809196
2022-12-15,1.464506728492243
2022-12-16,1.4682090450766017
2022-12-19,1.4541095048086516
2022-12-20,1.4410382188056705
2022-12-21,1.444249224159833
2022-12-22,1.4466078791624555
2022-12-23,1.4472417923371395
2022-12-26,1.444537706554521
2022-12-27,1.446926402995292
2022-12-28,1.444240493934721
2022-12-29,1.4426416707061196
2022-12-30,1.4438018105442525
2023-01-03,1.4418438147047885
2023-01-04,1.441637844055899
2023-01-05,1.4424765114503062
2023-01-06,1.4414469019515455
2023-01-09,1.445531556889195
2023-01-10,1.4443481690589446
2023-01-11,1.443837935060697
2023-01-12,1.443160621737167
2023-01-13,1.451459478123579
2023-01-16,1.464528857883828
2023-01-17,1.4613463369365176
2023-01-18,1.4595231807335411
2023-01-19,1.4655498785391674
2023-01-20,1.4708554317181985
2023-01-30,1.468953822277544
2023-01-31,1.4623277894358464
2023-02-01,1.472979595191654
2023-02-02,1.4684365781997544
2023-02-03,1.4602541485444938
2023-02-06,1.451123018930455
2023-02-07,1.4527284823392204
2023-02-08,1.449115685105574
2023-02-09,1.4553924463595258
2023-02-10,1.4540916592031021
2023-02-13,1.457587346893042
2023-02-14,1.459024406728986
2023-02-15,1.4576586253444195
2023-02-16,1.453317894185938
2023-02-17,1.4501446921200942
2023-02-20,1.4621200349570467
2023-02-21,1.4641594824699193
2023-02-22,1.4618984246494735
2023-02-23,1.4593403820107693
2023-02-24,1.4552460703567942
2023-02-27,1.4545673194039315
2023-02-28,1.45731600740955
2023-03-01,1.4647707566745778
2023-03-02,1.4700053484179485
2023-03-03,1.4756738932012288
2023-03-06,1.4719543264038097
2023-03-07,1.464330695192639
2023-03-08,1.4649890437906705
2023-03-09,1.4647201148352267
2023-03-10,1.4582662198722975
2023-03-13,1.4676459699779527
2023-03-14,1.4652315264000022
2023-03-15,1.469733964829598
2023-03-16,1.4633929637296146
2023-03-17,1.4692217059545347
2023-03-20,1.4646669426230905
2023-03-21,1.4626270109977377
2023-03-22,1.4650614854816786
2023-03-23,1.4688142352509301
2023-03-24,1.4633910095270404
2023-03-27,1.4581423706758858
2023-03-28,1.4574696317394558
2023-03-29,1.4563723806649271
2023-03-30,1.454484854262793
2023-03-31,1.4540054452535196
2023-04-03,1.4538161869901478
2023-04-04,1.4574691267274191
2023-04-06,1.4582460863127433
2023-04-07,1.4611770487430535
2023-04-10,1.4614149911298255
2023-04-11,1.4607876701278202
2023-04-12,1.4649133900021583
2023-04-13,1.4570223095925088
2023-04-14,1.4599795941440747
2023-04-17,1.465531759011056
2023-04-18,1.4676759385280813
2023-04-19,1.4583871692199428
2023-04-20,1.457599694671978
2023-04-21,1.4437333216264217
2023-04-24,1.4409151813328214
2023-04-25,1.4409161806762842
2023-04-26,1.435920424766661
2023-04-27,1.437240849538026
2023-04-28,1.4393034483088505
2023-05-04,1.4440220090656921
2023-05-05,1.4398478177885337
2023-05-08,1.4465875743279324
2023-05-09,1.4407425009142532
2023-05-10,1.4351810162084195
2023-05-11,1.4373302725481991
2023-05-12,1.4334573488607525
2023-05-15,1.4352788569326336
2023-05-16,1.4349819663701109
2023-05-17,1.4334650949099503
2023-05-18,1.4332629286493443
2023-05-19,1.430600548632567
2023-05-22,1.4327043472509315
2023-05-23,1.4292022001142644
2023-05-24,1.426655261443747
2023-05-25,1.4258244940676934
2023-05-26,1.4257441906324384
2023-05-29,1.4273281675711782
2023-05-30,1.4270820437021536
2023-05-31,1.4270772104097622
2023-06-01,1.4262506911169641
2023-06-02,1.425817793285855
2023-06-05,1.425055203225304
2023-06-06,1.4222401575131387
2023-06-07,1.4228276064417034
2023-06-08,1.423040627718097
2023-06-09,1.4236946146684635
2023-06-12,1.4235070732148318
2023-06-13,1.4241772590172423
2023-06-14,1.4251979301881512
2023-06-15,1.4284405824552207
2023-06-16,1.4321063234296099
2023-06-19,1.4273627568516571
2023-06-20,1.4263893178368532
2023-06-21,1.418042519985321
2023-06-26,1.4120812547734505
2023-06-27,1.4161011648069044
2023-06-28,1.4138675535514738
2023-06-29,1.4141085606000316
2023-06-30,1.4166241299249833
2023-07-03,1.4197908253058387
2023-07-04,1.4192869973615767
2023-07-05,1.4149051947267566
2023-07-06,1.4126648818139622
2023-07-07,1.4127112586325612
2023-07-10,1.4126927813935182
2023-07-11,1.4154593311425374
2023-07-12,1.412231586688636
2023-07-13,1.4155778801780035
2023-07-14,1.4140761361162189
2023-07-17,1.4101224186229295
2023-07-18,1.4091818952685038
2023-07-19,1.4090839095803254
2023-07-20,1.4052578595713796
2023-07-21,1.4060769457633648
2023-07-24,1.4046225280763085
2023-07-25,1.4126352630840389
2023-07-26,1.4122496609553103
2023-07-27,1.4128122188533057
2023-07-28,1.4340409789770383
2023-07-31,1.4386423569062015
2023-08-01,1.4322922527869748
2023-08-02,1.4276417894712539
2023-08-03,1.4347665350547238
2023-08-04,1.4355176947101211
2023-08-07,1.428131499136569
2023-08-08,1.4240966463985363
2023-08-09,1.4222847753879453
2023-08-10,1.425337274713043
2023-08-11,1.4075504834090076
2023-08-14,1.403741310645294
2023-08-15,1.4051152591651521
2023-08-16,1.404460593254393
2023-08-17,1.4037980457923294
2023-08-18,1.4030137832596263
2023-08-21,1.399877022010179
2023-08-22,1.4001662080686808
2023-08-23,1.3996868424859708
2023-08-24,1.3983968607468833
2023-08-25,1.3980233364201908
2023-08-28,1.3978364659917417
2023-08-29,1.3974488684550368
2023-08-30,1.397566170530794
2023-08-31,1.3949524434684906
2023-09-01,1.3964703249061088
2023-09-04,1.4008695643054068
2023-09-05,1.3991465802813734
2023-09-06,1.3976095263044876
2023-09-07,1.395101839541085
2023-09-08,1.3925805498905675
2023-09-11,1.393616992174458
2023-09-12,1.3933636482526601
2023-09-13,1.392442505839575
2023-09-14,1.3932023639222961
2023-09-15,1.3911742114926047
2023-09-18,1.392817456371563
2023-09-19,1.3939776205391499
2023-09-20,1.3922579654012734
2023-09-21,1.3882739365059715
2023-09-22,1.3890633755393036
2023-09-25,1.3886449906307723
2023-09-26,1.3870466661696559
2023-09-27,1.3857493425643597
2023-09-28,1.3843311745423497
2023-10-09,1.3847964932886856
2023-10-10,1.3833834797144897
2023-10-11,1.3847271704743465
2023-10-12,1.3857474308047275
2023-10-13,1.3851364076663775
2023-10-16,1.3844464311673677
2023-10-17,1.3858341772244758
2023-10-18,1.3853074786110344
2023-10-19,1.380069285190304
2023-10-20,1.3788564487364394
2023-10-23,1.3798257548673798
2023-10-24,1.3795119564179161
2023-10-25,1.380044205357151
2023-10-26,1.3796034157958803
2023-10-27,1.3807696187483567
2023-10-30,1.3848817237358344
2023-10-31,1.384169096825523
2023-11-01,1.3835252859479688
2023-11-02,1.381723772223118
2023-11-03,1.3832057899365517
2023-11-06,1.3841239746926148
2023-11-07,1.3819577259626783
2023-11-08,1.3814586384386687
2023-11-09,1.3798156824645627
2023-11-10,1.3784519801420028
2023-11-13,1.3768222948452822
2023-11-14,1.377038574880299
2023-11-15,1.3787199611984295
2023-11-16,1.3756640571569698
2023-11-17,1.3750686332260946
2023-11-20,1.3768867922971701
2023-11-21,1.3767690645848416
2023-11-22,1.3749730114111418
2023-11-23,1.3758629097427761
2023-11-24,1.375523423735742
2023-11-27,1.3740004652835878
2023-11-28,1.373305605937741
2023-11-29,1.373631391828309
2023-11-30,1.374594935184138
2023-12-01,1.373655687328727
2023-12-04,1.374663953457024
2023-12-05,1.3720744764149828
2023-12-06,1.3719932780710329
2023-12-07,1.371907819453445
2023-12-08,1.372203538421943
2023-12-11,1.3732992082524345
2023-12-12,1.3741605066599705
2023-12-13,1.3734352078452357
2023-12-14,1.372813576829504
2023-12-15,1.3712787137088072
2023-12-18,1.372701103776176
2023-12-19,1.3725274433354693
2023-12-20,1.3720528084915071
2023-12-21,1.3719721742625022
2023-12-22,1.3727093877080558
2023-12-25,1.3734345584040395
2023-12-26,1.3729330739505847
2023-12-27,1.3747794631798387
2023-12-28,1.3726059062875398
2023-12-29,1.3758525263725148
2024-01-02,1.372288419905981
2024-01-03,1.3729394290049473
2024-01-04,1.3715344572061656
2024-01-05,1.369458590857564
2024-01-08,1.3658580706851227
2024-01-09,1.3670831628627202
2024-01-10,1.3662596251305141
2024-01-11,1.3653949620877208
2024-01-12,1.3669044058541147
2024-01-15,1.3686280908256534
2024-01-16,1.371295921754021
2024-01-17,1.3660520837226626
2024-01-18,1.3686486455553695
2024-01-19,1.3660241377161295
2024-01-22,1.3610984857641686
2024-01-23,1.3620870607864328
2024-01-24,1.3661253046877555
2024-01-25,1.3740211889369005
2024-01-26,1.3777900642017245
2024-01-29,1.3805947994905738
2024-01-30,1.3746005556722214
2024-01-31,1.3715367896472792
2024-02-01,1.3666370332662012
2024-02-02,1.368198992465597
2024-02-05,1.3701504032092362
2024-02-06,1.377402524111625
2024-02-07,1.3818068109880228
2024-02-08,1.3829304957355433
2024-02-19,1.391704295520136
2024-02-20,1.3951313199956705
2024-02-21,1.404986992384741
2024-02-22,1.4121942978457518
2024-02-23,1.4097472347738826
2024-02-26,1.3966276226892134
2024-02-27,1.4057033324875117
2024-02-28,1.3945908428508917
2024-02-29,1.4124577110372027
2024-03-01,1.4138736730841721
2024-03-04,1.414971950697658
2024-03-05,1.4222585163357246
2024-03-06,1.419415224075076
2024-03-07,1.4145383845926662
2024-03-08,1.4166050936694703
2024-03-11,1.4219408498768606
2024-03-12,1.421635159711383
2024-03-13,1.415818169129775
2024-03-14,1.4159906889513856
2024-03-15,1.4161137871047287
2024-03-18,1.4221069829324628
2024-03-19,1.4182830701777656
2024-03-20,1.4185876172715288
2024-03-21,1.4190035162502523
2024-03-22,1.4139156225455127
2024-03-25,1.411945530029203
2024-03-26,1.4150403362978972
2024-03-27,1.4111656495109184
2024-03-28,1.411721800614439
2024-03-29,1.4135492277790642
2024-04-01,1.418825609742126
2024-04-02,1.4169608583351918
2024-04-03,1.4180139620354828
2024-04-08,1.4164456991513714
2024-04-09,1.4125879589221442
2024-04-10,1.4159042038095122
2024-04-11,1.4175807593606107
2024-04-12,1.416330703679829
2024-04-15,1.4282220018899356
2024-04-16,1.4271543742826793
2024-04-17,1.4330477862463689
2024-04-18,1.4317180013485256
2024-04-19,1.4329998157254058
2024-04-22,1.4245637437984706
2024-04-23,1.4149816531835815
2024-04-24,1.416008232377942
2024-04-25,1.4180548375073136
2024-04-26,1.4189839571235923
2024-04-29,1.420530015334812
2024-04-30,1.4188875832387873
2024-05-06,1.4314060870208025
2024-05-07,1.4322924708460503
2024-05-08,1.423656933168549
2024-05-09,1.4327431299134061
2024-05-10,1.4359563784321474
2024-05-13,1.435917316327935
2024-05-14,1.435923120449084
2024-05-15,1.431329793239188
2024-05-16,1.4350541046928473
2024-05-17,1.4467245145079397
2024-05-20,1.45042876029504
2024-05-21,1.4477113223170546
2024-05-22,1.4484546831419953
2024-05-23,1.439273850806452
2024-05-24,1.4304935268189982
2024-05-27,1.4346478658041373
2024-05-28,1.43172338266736
2024-05-29,1.4324406258458673
2024-05-30,1.4275232574281387
2024-05-31,1.425058793937421
2024-06-03,1.4289803651270139
2024-06-04,1.4297693857047664
2024-06-05,1.4298432611999616
2024-06-06,1.4292743906977385
2024-06-07,1.4311868817402313
2024-06-11,1.4297675890625416
2024-06-12,1.4306352447041017
2024-06-13,1.4317344760515336
2024-06-14,1.42879694740419
2024-06-17,1.4304299937700649
2024-06-18,1.4313449338539954
2024-06-19,1.4312194133151033
2024-06-20,1.4312034360764292
2024-06-21,1.4314318830152817
2024-06-24,1.430594814555943
2024-06-25,1.4291533205014961
2024-06-26,1.4297911256411258
2024-06-27,1.4291538929809176
2024-06-28,1.4315572380858053
2024-07-01,1.4332813442334988
2024-07-02,1.4344571864019688
2024-07-03,1.4335254493607115
2024-07-04,1.4339379896028497
2024-07-05,1.4313550000828983
2024-07-08,1.4349543174703354
2024-07-09,1.438422431871547
2024-07-10,1.4335489774186019
2024-07-11,1.4362274434508748
2024-07-12,1.4352450726355375
2024-07-15,1.4374940221245875
2024-07-16,1.4404925504955914
2024-07-17,1.4383712264280424
2024-07-18,1.4422862755959278
2024-07-19,1.444997771177554
2024-07-22,1.4400291070121864
2024-07-23,1.4259576799439102
2024-07-24,1.4256062194360433
2024-07-25,1.424508901763207
2024-07-26,1.4233161399424785
2024-07-29,1.4217107417912953
2024-07-30,1.4195269078243014
2024-07-31,1.4199817079776944
2024-08-01,1.4186956308969236
2024-08-02,1.4165918238510486
2024-08-05,1.4137428938448404
2024-08-06,1.4152999263698953
2024-08-07,1.4138451742818077
2024-08-08,1.4129783180573867
2024-08-09,1.4109865124345766
2024-08-12,1.410335341183608
2024-08-13,1.409803596036776
2024-08-14,1.4093605456147578
2024-08-15,1.4116422284450536
2024-08-16,1.4107366196150832
2024-08-19,1.4116658848999093
2024-08-20,1.4093998637851017
2024-08-21,1.4081015169160227
2024-08-22,1.4098488321501437
2024-08-23,1.41143369042639
2024-08-26,1.4115125559200883
2024-08-27,1.4103650616429189
2024-08-28,1.407648754850307
2024-08-29,1.401865127929912
2024-08-30,1.4042792941978532
2024-09-02,1.3989314364988974
2024-09-03,1.4005077510586372
2024-09-04,1.3997698240049492
2024-09-05,1.3992217888983967
2024-09-06,1.3951058758454993
2024-09-09,1.3922352387567618
2024-09-10,1.3915566671473432
2024-09-11,1.3942168225519147
2024-09-12,1.3934449063697996
2024-09-13,1.3922163711585962
2024-09-18,1.3945530244772135
2024-09-19,1.3971222175485205
2024-09-20,1.3969063077431947
2024-09-23,1.396863261468832
2024-09-24,1.4066399067377917
2024-09-25,1.4153435242827863
2024-09-26,1.4505232701814843
2024-09-27,1.501473828588597
2024-09-30,1.591382510462476
2024-10-08,1.6427610285599594
2024-10-09,1.544625938597812
2024-10-10,1.566030950663182
2024-10-11,1.5365115694652354
2024-10-14,1.5592672054079397
2024-10-15,1.5285319032146183
2024-10-16,1.523712872186224
2024-10-17,1.5000069802496185
2024-10-18,1.5310537398217465
2024-10-21,1.5385878947496998
2024-10-22,1.545664405896018
2024-10-23,1.554711967518777
2024-10-24,1.5400584811616134
2024-10-25,1.548540718666178
2024-10-28,1.5555979266576463
2024-10-29,1.544447275593279
2024-10-30,1.5430022857109993
2024-10-31,1.546968852396003
2024-11-01,1.5463024758717072
2024-11-04,1.5511949006102461
2024-11-05,1.560381001718881
2024-11-06,1.5601700608267266
2024-11-07,1.5731078006270558
2024-11-08,1.5612031764357936
2024-11-11,1.5603079464517045
2024-11-12,1.5508357230886844
2024-11-13,1.5524688908541888
2024-11-14,1.5375895393386194
2024-11-15,1.5300129542199052
2024-11-18,1.5270681787770044
2024-11-19,1.5252285794410492
2024-11-20,1.5250310138976937
2024-11-21,1.5249955715727674
2024-11-22,1.5166515097091282
2024-11-25,1.515654649001135
2024-11-26,1.5160306417174925
2024-11-27,1.517035534578529
2024-11-28,1.5173527941075176
2024-11-29,1.5171108638497302
2024-12-02,1.51647707883062
2024-12-03,1.5155456315414553
2024-12-04,1.5152626162355833
2024-12-05,1.5149208475862874
2024-12-06,1.5160226590912544
2024-12-09,1.5172771516618504
2024-12-10,1.5173452139127803
2024-12-11,1.517797734574422
2024-12-12,1.5187945683682755
2024-12-13,1.5069361704853181
2024-12-16,1.505970611573519
2024-12-17,1.5064152699544455
2024-12-18,1.507646527200149
2024-12-19,1.5068094478097458
2024-12-20,1.5020664038629807
2024-12-23,1.5028331294595307
2024-12-24,1.5070379095552167
2024-12-25,1.5083022739413245
2024-12-26,1.5093084552282325
2024-12-27,1.5090540544433237
2024-12-30,1.5100605509879272
2024-12-31,1.5081064328728642
2025-01-02,1.4938406908761102
2025-01-03,1.490145650618432
2025-01-06,1.4902502690834538
2025-01-07,1.4904686090324373
2025-01-08,1.4917545233184237
2025-01-09,1.4912183837980961
2025-01-10,1.489197876554776
2025-01-13,1.4887684911275
2025-01-14,1.4915447785752378
2025-01-15,1.4913090235177653
2025-01-16,1.4916876100165593
2025-01-17,1.4926115502473212
2025-01-20,1.49073323678278
2025-01-21,1.49311883794401
2025-01-22,1.4890991347475635
2025-01-23,1.4870221415989906
2025-01-24,1.4888933459899494
2025-01-27,1.487241924216681
2025-02-05,1.4870562986549496
2025-02-06,1.490136593838262
2025-02-07,1.4943336155051095
2025-02-10,1.4960844043232258
2025-02-11,1.4932232608910707
2025-02-12,1.5012747644249247
2025-02-13,1.5006779253580858
2025-02-14,1.506630649563393
2025-02-17,1.5090051529561603
2025-02-18,1.5039193117933733
2025-02-19,1.511812639545646
2025-02-20,1.5082401327255555
2025-02-21,1.5154905993303893
2025-02-24,1.5149413595551795
2025-02-25,1.5066422084506692
2025-02-26,1.5100167503887565
2025-02-27,1.5116617935485566
2025-02-28,1.5009650686651677
2025-03-03,1.5012666968460544
2025-03-04,1.4982027748132907
2025-03-05,1.50004365317701
2025-03-06,1.5042224924970204
2025-03-07,1.5039340756933317
2025-03-10,1.502004815365766
2025-03-11,1.504951548307615
2025-03-12,1.5012786609514643
2025-03-13,1.5007577969410524
2025-03-14,1.5084895611176543
2025-03-17,1.5090936500627998
2025-03-18,1.5074188511318125
2025-03-19,1.5089918277581986
2025-03-20,1.5040402812742746
2025-03-21,1.4963051342807894
2025-03-24,1.4976772039085422
2025-03-25,1.4981023004562055
2025-03-26,1.4968849888263593
2025-03-27,1.49739709376997
2025-03-28,1.4949713071673263
2025-03-31,1.4941068660897414
2025-04-01,1.4933593029952594
2025-04-02,1.491673029517069
2025-04-03,1.4919762579570355
2025-04-07,1.4813437646235046
2025-04-08,1.4884177037072464
2025-04-09,1.4903840545290858
2025-04-10,1.4907914325212637
2025-04-11,1.4838815268423584
2025-04-14,1.4838888616791306
2025-04-15,1.4818820771529153
2025-04-16,1.4847507847359027
2025-04-17,1.4850728960587003
2025-04-18,1.4820857026986483
2025-04-21,1.4797850806838773
2025-04-22,1.48054395333433
2025-04-23,1.4761079394508303
2025-04-24,1.4770889014219153
2025-04-25,1.4746426933782824
2025-04-28,1.4725117740231792
2025-04-29,1.4713119121338074
2025-04-30,1.4696207102407508
2025-05-06,1.470688299747831
2025-05-07,1.4712936232844451
2025-05-08,1.4731268184946744
2025-05-09,1.472400295057416
2025-05-12,1.4827561482519789
2025-05-13,1.4823312798245916
2025-05-14,1.4885682869791117
2025-05-15,1.4810609516874398
2025-05-16,1.4765678183055857
2025-05-19,1.4761590189878404
2025-05-20,1.4808375656910682
2025-05-21,1.483907242645291
2025-05-22,1.4841632534126206
2025-05-23,1.478476818268261
2025-05-26,1.4751800048647603
2025-05-27,1.4722929350930916
2025-05-28,1.474512569152694
2025-05-29,1.4723709777559746
2025-05-30,1.4724120838306993
2025-06-03,1.4725971321333853
2025-06-04,1.47065087189437
2025-06-05,1.469652284537413
2025-06-06,1.469171357480333
2025-06-09,1.4721494541834408
2025-06-10,1.4709973739482123
2025-06-11,1.4722907679911126
2025-06-12,1.4737778798982342
2025-06-13,1.4724196764284454
2025-06-16,1.4713702578658414
2025-06-17,1.4706158413436232
2025-06-18,1.469491037394979
2025-06-19,1.4663217141949414
2025-06-20,1.46647966839592
2025-06-23,1.4671236456423067
2025-06-24,1.4669392821165501
2025-06-25,1.4720370659282203
2025-06-26,1.4698557677771473
2025-06-27,1.468120186387195
2025-06-30,1.4710590717220675
2025-07-01,1.470720765695649
2025-07-02,1.472768341389717
2025-07-03,1.4768708222884563
2025-07-04,1.4787484183414121
2025-07-07,1.476375931766018
2025-07-08,1.4829361808568944
2025-07-09,1.4820505188107067
2025-07-10,1.4889187551763818
2025-07-11,1.4891480270910857
2025-07-14,1.4887918637188549
2025-07-15,1.4861602185870542
2025-07-16,1.4844016580626158
2025-07-17,1.4915229527084843
2025-07-18,1.497167765813173
2025-07-21,1.504675950835236
2025-07-22,1.5226353663523122
2025-07-23,1.5148005864051057
2025-07-24,1.5254455001131757
2025-07-25,1.5147551376834363
2025-07-28,1.5143642351478257
2025-07-29,1.5168621611313964
2025-07-30,1.517063326914104
2025-07-31,1.4967497028938952
2025-08-01,1.4919902192815393
2025-08-04,1.491825017830396
2025-08-05,1.4936496288564185
2025-08-06,1.494760648426127
2025-08-07,1.4945674899685277
2025-08-08,1.4947931075219023
2025-08-11,1.494247365676967
2025-08-12,1.495488978344029
2025-08-13,1.497622373843262
2025-08-14,1.494776782916567
2025-08-15,1.4991948085071065
2025-08-18,1.5031758883950699
2025-08-19,1.4980953959862515
2025-08-20,1.5041400551843904
2025-08-21,1.5101699866379998
2025-08-22,1.5192387088965207
2025-08-25,1.531058198122375
2025-08-26,1.53459798196863
2025-08-27,1.512312012866822
2025-08-28,1.518264429326504
2025-08-29,1.522549308739787
2025-09-01,1.526277446142381
2025-09-02,1.5191674342861456
2025-09-03,1.5127268462754795
2025-09-04,1.5055962328528696
2025-09-05,1.5189085570053422
2025-09-08,1.5247206342874369
2025-09-09,1.5213552702258841
2025-09-10,1.517099766865366
2025-09-11,1.5225942754543358
2025-09-12,1.520688929887119
2025-09-15,1.5249208726332466
2025-09-16,1.523212605994065
2025-09-17,1.5246393338717579
2025-09-18,1.515924368065325
2025-09-19,1.5181071632459353
2025-09-22,1.521194748399527
2025-09-23,1.520496030458468
2025-09-24,1.5255354021712557
2025-09-25,1.5267611840506936
2025-09-26,1.5233587323501185
2025-09-29,1.527393482483411
2025-09-30,1.5309139071948672
2025-10-09,1.5363940142674433
2025-10-10,1.5292731863940976
2025-10-13,1.525299264162497
2025-10-14,1.5229383614379766
2025-10-15,1.5254438341421244
2025-10-16,1.529701807055363
2025-10-17,1.5197060199907888
2025-10-20,1.51862775723366
2025-10-21,1.5201315676626508
2025-10-22,1.5190545989858821
2025-10-23,1.5204190239508397
2025-10-24,1.5193305261946288
2025-10-27,1.523691316698459
2025-10-28,1.5187510835062938
2025-10-29,1.5199910674507684
2025-10-30,1.520814508694231
2025-10-31,1.5109068263020449
2025-11-03,1.513387762643371
2025-11-04,1.5091560639112769
2025-11-05,1.511083839251366
2025-11-06,1.512602027597794
2025-11-07,1.5156024910345165
2025-11-10,1.5210250241683319
2025-11-11,1.5197848057039
2025-11-12,1.5164464112930989
2025-11-13,1.5209068960451106
2025-11-14,1.516459682729337
2025-11-17,1.5136438815549786
2025-11-18,1.5091374475962418
2025-11-19,1.5116434809672121
2025-11-20,1.5069938130919176
2025-11-21,1.5034826145284275
2025-11-24,1.5026484436299699
2025-11-25,1.5031873280658758
2025-11-26,1.5024682278781474
2025-11-27,1.502733825518516
2025-11-28,1.5023785802262801
2025-12-01,1.5029134311992005
2025-12-02,1.5008699898897209
2025-12-03,1.4995607305208538
2025-12-04,1.4993080182401965
2025-12-05,1.5001381545426062
2025-12-08,1.5001746674329168
2025-12-09,1.497911248473627
2025-12-10,1.4980683477283785
2025-12-11,1.4939326711255316
2025-12-12,1.4970435546299459
2025-12-15,1.4949244993585027
2025-12-16,1.492576822598191
2025-12-17,1.495076313386194
2025-12-18,1.4947570011299987
2025-12-19,1.4960423555860995
2025-12-22,1.4964074145097432
2025-12-23,1.4942541399063565
2025-12-24,1.495747309815738
2025-12-25,1.4978915778976603
2025-12-26,1.5003997320976892
2025-12-29,1.498819718006477
2025-12-30,1.4976599100387664
2025-12-31,1.49900634651831
2026-01-05,1.5010114391935878
2026-01-06,1.5138850762815537
2026-01-07,1.5082830529476683
2026-01-08,1.5089483672024908
2026-01-09,1.5126944252505043
2026-01-12,1.5207579195051242
2026-01-13,1.512824727878085
2026-01-14,1.5076626062215066
2026-01-15,1.5071797436796273
2026-01-16,1.5027581344988057
2026-01-19,1.5046624857665492
2026-01-20,1.507832474019473
2026-01-21,1.5067409006785994
2026-01-22,1.5083619840873448
2026-01-23,1.5051798700430326
2026-01-26,1.5041359867827866
2026-01-27,1.505103001111213
2026-01-28,1.5064586453107132
2026-01-29,1.5081790740960277
2026-01-30,1.5002105440349733
2026-02-02,1.4901696996352853
2026-02-03,1.4950976738404411
2026-02-04,1.5002412897568715
2026-02-05,1.4993451998840086
2026-02-06,1.4951532270809331
2026-02-09,1.4995978369908731
2026-02-10,1.4984393525276742
2026-02-11,1.4981395735860743
2026-02-12,1.499917087786476
2026-02-13,1.494941914589585
2026-02-24,1.4978786336089005
2026-02-25,1.5006115486301186
2026-02-26,1.4994684864451002
2026-02-27,1.500069135004398
2026-03-02,1.5081514747787168
2026-03-03,1.5072257976070347
2026-03-04,1.5052096125349996
2026-03-05,1.5033600632347741
2026-03-06,1.5075420183669785
2026-03-09,1.5065956753203689
2026-03-10,1.505955618837471
2026-03-11,1.5102236450299384
2026-03-12,1.5114305126568162
2026-03-13,1.5091796179722206
2026-03-16,1.5101253897189233
2026-03-17,1.5077081494022389
2026-03-18,1.5068170929586373
2026-03-19,1.5057272321127808
2026-03-20,1.504320004526334
2026-03-23,1.4982348028472599
2026-03-24,1.4999337423850718
2026-03-25,1.4987879305618654
2026-03-26,1.4971758400249973
2026-03-27,1.4976775598942502
2026-03-30,1.4964058229072623
2026-03-31,1.4935594930912344
2026-04-01,1.4937729749451427
2026-04-02,1.4930646707196622
2026-04-03,1.49087719744115
2026-04-07,1.490115976060028
2026-04-08,1.491138403887679
2026-04-09,1.491216685132938
2026-04-10,1.491975003917739
2026-04-13,1.4919703440777254
2026-04-14,1.4930236155271173
2026-04-15,1.4917570078022468
2026-04-16,1.4939146266181473
2026-04-17,1.4895162170301672
2026-04-20,1.491434350972448
2026-04-21,1.4916826056449568
2026-04-22,1.492475782452545
2026-04-23,1.490271042441279
2026-04-24,1.4879359270469963
2026-04-27,1.4889061821812262
2026-04-28,1.4879442094908941
2026-04-29,1.4896929895619704
2026-04-30,1.488255209240597
2026-05-06,1.4927768241237596
2026-05-07,1.4913126782215227
2026-05-08,1.4900212451562511
2026-05-11,1.4961684601414165
2026-05-12,1.4926280780968166
2026-05-13,1.4925600031881596
2026-05-14,1.4825980387267887
2026-05-15,1.47963771359432
2026-05-18,1.4763399793472536
2026-05-19,1.4772325730869331
2026-05-20,1.4726977361551825
2026-05-21,1.4714451578475807
2026-05-22,1.4711810012462947
2026-05-25,1.4720119589596168
2026-05-26,1.4713513206455233
2026-05-27,1.4707920098982483
2026-05-28,1.470083883138961
2026-05-29,1.4711124201828552
2026-06-01,1.4733635558878624
2026-06-02,1.473684251171969
2026-06-03,1.4735138490186321
2026-06-04,1.4725285613970323
2026-06-05,1.470803242192202
2026-06-08,1.470249870838684
2026-06-09,1.4688869375676625
2026-06-10,1.4673401345046821
2026-06-11,1.4673433077390274
2026-06-12,1.4665578373940917
2026-06-15,1.4624326587225187
2026-06-16,1.4595492707345235
2026-06-17,1.4595901167649696
2026-06-18,1.4555136425877422
2026-06-22,1.4590999210910258
2026-06-23,1.457498818910134
2026-06-24,1.4598380570302514
2026-06-25,1.461949186216542
2026-06-26,1.4527347992791872
2026-06-29,1.453652174951376
2026-06-30,1.4530377855981682
2026-07-01,1.4557013937981285
2026-07-02,1.4549779085310839
2026-07-03,1.456216610079494
2026-07-06,1.459347093650369
2026-07-07,1.4568845176915919
2026-07-08,1.4537580393210048
2026-07-09,1.4573648334318097
2026-07-10,1.4569846611859822
2026-07-13,1.4562623333762617
2026-07-14,1.4594441349112348
2026-07-15,1.466164238197577
2026-07-16,1.465943564523848
2026-07-17,1.4590616389614743
2026-07-20,1.4757081262453562
2026-07-21,1.470108924840963
2026-07-22,1.4784271392535793
2026-07-23,1.4783119476152664
2026-07-24,1.4656452667555226
2026-07-27,1.4667724654179568
2026-07-28,1.4746278659994734
2026-07-29,1.483647869135756
2026-07-30,1.499727539293748
2026-07-31,1.4940415979711839
2026-08-03,1.493949929708061
2026-08-04,1.4770262433551307
2026-08-05,1.4752479707898198
2026-08-06,1.470609477763544
2026-08-07,1.4698685890997725
2026-08-10,1.4749052321287681
2026-08-11,1.4654675901905243
2026-08-12,1.469479926596395
2026-08-13,1.466123007650889
2026-08-14,1.4649499323970732
2026-08-17,1.4651466035719602
2026-08-18,1.4639131669489664
2026-08-19,1.4605404628038507
2026-08-20,1.4612845296361725
2026-08-21,1.4594914805616725
2026-08-24,1.4590433813159769
2026-08-25,1.4595188940333261
2026-08-26,1.4596490399878241
2026-08-27,1.4606483684488993
2026-08-28,1.4621475279908414
2026-08-31,1.4615141517374146
2026-09-01,1.4649552876599536
2026-09-02,1.4596897855264186
2026-09-03,1.4612266002197536
2026-09-04,1.4641460701384441
2026-09-07,1.4578430312127901
2026-09-08,1.460077274511619
2026-09-09,1.4627755386728356
2026-09-10,1.4597347418954434
2026-09-11,1.455857383822054
2026-09-14,1.4538700674284668
2026-09-15,1.4510901510287841
2026-09-16,1.4494321878482055
2026-09-17,1.4506679700199552
2026-09-18,1.4500724984502538
2026-09-21,1.4528562943610732
2026-09-22,1.4511918393655365
2026-09-23,1.4506912535835232
2026-09-24,1.4488111442630944
2026-09-28,1.4489477030559164
2026-09-29,1.4499474970247297
