date,equity
2018-10-16,1.0
2018-10-17,1.0
2018-10-18,1.0
2018-10-19,1.0
2018-10-22,1.0
2018-10-23,1.0
2018-10-24,1.0
2018-10-25,1.0
2018-10-26,1.0
2018-10-29,1.0
2018-10-30,1.0
2018-10-31,1.0
2018-11-01,1.0
2018-11-02,1.0
2018-11-05,1.0
2018-11-06,1.0
2018-11-07,1.0
2018-11-08,1.0
2018-11-09,1.0
2018-11-12,1.0
2018-11-13,0.9999262873176314
2018-11-14,0.9992800378959739
2018-11-15,1.0014609549653786
2018-11-16,1.0041518025084888
2018-11-19,1.0064772512783087
2018-11-20,0.998165877249321
2018-11-21,0.9982179242900744
2018-11-22,0.9980585844154894
2018-11-23,0.9902150893073458
2018-11-26,0.9909401107716622
2018-11-27,0.9917464929910687
2018-11-28,0.9961590367963674
2018-11-29,0.9938655385355722
2018-11-30,0.9940142588851479
2018-12-03,0.9995182130587272
2018-12-04,0.9995834178533956
2018-12-05,1.00580679489168
2018-12-06,0.9922938274915661
2018-12-07,0.9917483943943972
2018-12-10,0.9880415821868982
2018-12-11,0.9881017383270339
2018-12-12,0.990135829972993
2018-12-13,0.9963312579875737
2018-12-14,0.9887290009584312
2018-12-17,0.9868515091898891
2018-12-18,0.9857272754965766
2018-12-19,0.9829844875814536
2018-12-20,0.9801858486006938
2018-12-21,0.9799760736302179
2018-12-24,0.9800125381644985
2018-12-25,0.979556866141729
2018-12-26,0.9800330021519589
2018-12-27,0.9801100843879477
2018-12-28,0.9803318398829709
2019-01-02,0.9789352164741424
2019-01-03,0.9791283074542998
2019-01-04,0.9788079555007742
2019-01-07,0.9786533302251785
2019-01-08,0.9786947871113214
2019-01-09,0.9786426970374427
2019-01-10,0.9775504721096302
2019-01-11,0.9777052543293208
2019-01-14,0.976319458920723
2019-01-15,0.981038409486705
2019-01-16,0.9807276023391376
2019-01-17,0.9789518238712904
2019-01-18,0.9894518927439312
2019-01-21,0.9909064622083525
2019-01-22,0.9806902665043973
2019-01-23,0.9831455314677279
2019-01-24,0.9886491082916455
2019-01-25,0.9938672204205607
2019-01-28,0.9947906120051775
2019-01-29,1.0003937313972138
2019-01-30,0.9959607205646271
2019-01-31,1.0074009115525706
2019-02-01,1.0159230195803315
2019-02-11,1.0302298854634109
2019-02-12,1.03511573819414
2019-02-13,1.0479634742690316
2019-02-14,1.0547519464290485
2019-02-15,1.0378197939045468
2019-02-18,1.0686772612878193
2019-02-19,1.0661688402966105
2019-02-20,1.0744525802252642
2019-02-21,1.076800401927035
2019-02-22,1.096886519445676
2019-02-25,1.1374052708387505
2019-02-26,1.1255183654951892
2019-02-27,1.1140218107817328
2019-02-28,1.121210854494254
2019-03-01,1.1456359921506873
2019-03-04,1.1594698326147914
2019-03-05,1.1643068546039193
2019-03-06,1.164419004683993
2019-03-07,1.1416157227668209
2019-03-08,1.1138115491297136
2019-03-11,1.1276643631225414
2019-03-12,1.1314704159249396
2019-03-13,1.1222316088477169
2019-03-14,1.1228859821395467
2019-03-15,1.134306737336188
2019-03-18,1.1526513514259729
2019-03-19,1.1474927610961285
2019-03-20,1.1441594272049547
2019-03-21,1.140699173378148
2019-03-22,1.14208073621418
2019-03-25,1.1263259777404306
2019-03-26,1.1238263490032174
2019-03-27,1.1328818818262811
2019-03-28,1.1357856024777861
2019-03-29,1.1536808236900333
2019-04-01,1.1650008018554407
2019-04-02,1.160724885134547
2019-04-03,1.1662306371840567
2019-04-04,1.1721577212462253
2019-04-08,1.1695781150222875
2019-04-09,1.1768952931369299
2019-04-10,1.1862882967728323
2019-04-11,1.1629422403542222
2019-04-12,1.1591541138841959
2019-04-15,1.1591382397734458
2019-04-16,1.1769383454361433
2019-04-17,1.1843161132334457
2019-04-18,1.1833361469094985
2019-04-19,1.1925399993412904
2019-04-22,1.177879148134544
2019-04-23,1.1777295249055615
2019-04-24,1.1801821402125048
2019-04-25,1.1722635937143773
2019-04-26,1.1612739504378158
2019-04-29,1.168796998282565
2019-04-30,1.1672801880106005
2019-05-06,1.149777831823859
2019-05-07,1.1544120389251842
2019-05-08,1.1529190192021688
2019-05-09,1.1515400867383379
2019-05-10,1.1558274035575757
2019-05-13,1.1552778765563383
2019-05-14,1.154868792249967
2019-05-15,1.157230359862807
2019-05-16,1.157058077042886
2019-05-17,1.1518464668830863
2019-05-20,1.1485699661626232
2019-05-21,1.1497878218733872
2019-05-22,1.1498428029697387
2019-05-23,1.1463785118770426
2019-05-24,1.145882026844608
2019-05-27,1.147345105107148
2019-05-28,1.149296583877351
2019-05-29,1.1484108836953395
2019-05-30,1.147820184523733
2019-05-31,1.1472333035799844
2019-06-03,1.1473030936808408
2019-06-04,1.145167638252997
2019-06-05,1.1460871273292605
2019-06-06,1.1421287030612812
2019-06-10,1.1468814683363435
2019-06-11,1.1546872524296874
2019-06-12,1.1504664889567588
2019-06-13,1.1475400627254382
2019-06-14,1.1443362176564833
2019-06-17,1.1444600075248492
2019-06-18,1.1471874372762112
2019-06-19,1.1552239165987594
2019-06-20,1.1762124174911053
2019-06-21,1.175502785196489
2019-06-24,1.1802986480746411
2019-06-25,1.1732520497877685
2019-06-26,1.173482038685758
2019-06-27,1.1898410977120546
2019-06-28,1.1902588946168353
2019-07-01,1.2176922870715334
2019-07-02,1.2197319223681733
2019-07-03,1.2064835437819568
2019-07-04,1.1989176433691335
2019-07-05,1.2075630243593103
2019-07-08,1.1889985858998438
2019-07-09,1.1893293641433678
2019-07-10,1.1918879218799459
2019-07-11,1.1890978402232366
2019-07-12,1.1928575143773719
2019-07-15,1.1965498038333209
2019-07-16,1.1901019689583872
2019-07-17,1.1931265143667786
2019-07-18,1.1886432451939533
2019-07-19,1.1925866367332811
2019-07-22,1.1938408404576892
2019-07-23,1.1984938481236247
2019-07-24,1.201694383605415
2019-07-25,1.2072001496381262
2019-07-26,1.2112501092726926
2019-07-29,1.2117557804574588
2019-07-30,1.2115520135146394
2019-07-31,1.207852328999804
2019-08-01,1.2071430603225581
2019-08-02,1.2001520235840801
2019-08-05,1.1907657700824814
2019-08-06,1.1886231225596324
2019-08-07,1.187268428318621
2019-08-08,1.1899171024767843
2019-08-09,1.1873976420514318
2019-08-12,1.189238115303301
2019-08-13,1.1888063017662658
2019-08-14,1.189879052733882
2019-08-15,1.1924762551178025
2019-08-16,1.1930512534561868
2019-08-19,1.199302750990464
2019-08-20,1.2026378436469798
2019-08-21,1.2007683366458266
2019-08-22,1.2036223712044842
2019-08-23,1.2091771000380378
2019-08-26,1.2037875335492276
2019-08-27,1.2139714582420649
2019-08-28,1.2148429496957132
2019-08-29,1.2135490437032017
2019-08-30,1.21700831750849
2019-09-02,1.2274805245698843
2019-09-03,1.2283660535260854
2019-09-04,1.2257791330244419
2019-09-05,1.23023972448755
2019-09-06,1.2316249371816297
2019-09-09,1.233248201193984
2019-09-10,1.22946937810054
2019-09-11,1.2169952531376897
2019-09-12,1.2198667401023653
2019-09-16,1.2166397478065114
2019-09-17,1.2085793785197037
2019-09-18,1.2095730631748376
2019-09-19,1.2116409621778936
2019-09-20,1.2146026988756589
2019-09-23,1.209253131543288
2019-09-24,1.209998463614439
2019-09-25,1.2067336975945226
2019-09-26,1.2030596098180963
2019-09-27,1.204259905319298
2019-09-30,1.2010725693715794
2019-10-08,1.2019790055346655
2019-10-09,1.1987855237927318
2019-10-10,1.2001080962322597
2019-10-11,1.2020676518321627
2019-10-14,1.2030831240481727
2019-10-15,1.2065418345098657
2019-10-16,1.2054858292685475
2019-10-17,1.2069376221042563
2019-10-18,1.2032913151357267
2019-10-21,1.2062626285423375
2019-10-22,1.208092235146931
2019-10-23,1.2046119095420624
2019-10-24,1.2043655678325023
2019-10-25,1.2112178660282689
2019-10-28,1.2112669263544182
2019-10-29,1.212897599355029
2019-10-30,1.212149783608502
2019-10-31,1.2107405840596246
2019-11-01,1.2196726183937034
2019-11-04,1.2231285606248683
2019-11-05,1.230003604444539
2019-11-06,1.2283376634426368
2019-11-07,1.230804947105963
2019-11-08,1.2320012780997383
2019-11-11,1.2207621133976891
2019-11-12,1.2207485296806952
2019-11-13,1.226159897006446
2019-11-14,1.225690962071019
2019-11-15,1.222915773996503
2019-11-18,1.2235031485265928
2019-11-19,1.2305759538750125
2019-11-20,1.2252039541090403
2019-11-21,1.2218395005016802
2019-11-22,1.214592047008881
2019-11-25,1.2176852098738475
2019-11-26,1.2204587798176596
2019-11-27,1.2195146155250465
2019-11-28,1.2192948118649147
2019-11-29,1.2163805728088457
2019-12-02,1.2208863738932425
2019-12-03,1.2237486854657837
2019-12-04,1.2226901104202814
2019-12-05,1.225949777881804
2019-12-06,1.2297019660157242
2019-12-09,1.2313873851999841
2019-12-10,1.2340181096588376
2019-12-11,1.2319225624459933
2019-12-12,1.2287743669747822
2019-12-13,1.233561905676888
2019-12-16,1.234413229542883
2019-12-17,1.2398258551722787
2019-12-18,1.2357806160461473
2019-12-19,1.2343922050275395
2019-12-20,1.2346678174010717
2019-12-23,1.228609274068608
2019-12-24,1.2349955181666767
2019-12-25,1.2376498371240807
2019-12-26,1.2421333249367015
2019-12-27,1.2400416223316817
2019-12-30,1.2506296390611404
2019-12-31,1.2512907710596701
2020-01-02,1.262230351170917
2020-01-03,1.2608322423816918
2020-01-06,1.2563531337094525
2020-01-07,1.261031651138487
2020-01-08,1.2547776333622305
2020-01-09,1.2695909678746078
2020-01-10,1.2690447435374286
2020-01-13,1.2787990289834144
2020-01-14,1.2759095277082508
2020-01-15,1.2749515372435756
2020-01-16,1.273586966905323
2020-01-17,1.2758664317220376
2020-01-20,1.282812605640184
2020-01-21,1.2716709618814959
2020-01-22,1.2797958332960615
2020-01-23,1.2647940513628761
2020-02-03,1.2479272656937879
2020-02-04,1.2557217645874486
2020-02-05,1.2666627613939059
2020-02-06,1.2714750347281285
2020-02-07,1.268543909734434
2020-02-10,1.2710063942873364
2020-02-11,1.2698149911710492
2020-02-12,1.2706808851762061
2020-02-13,1.2697747347496517
2020-02-14,1.269912150237896
2020-02-17,1.2787688587554564
2020-02-18,1.2799823751296595
2020-02-19,1.2787700454051774
2020-02-20,1.2879573275510965
2020-02-21,1.2900233943620778
2020-02-24,1.2905245295309486
2020-02-25,1.2988930654837711
2020-02-26,1.28131126540302
2020-02-27,1.281727074283111
2020-02-28,1.2695166574286179
2020-03-02,1.2818131365338392
2020-03-03,1.2805422844565175
2020-03-04,1.2817016702008632
2020-03-05,1.290148374547617
2020-03-06,1.2789735845493546
2020-03-09,1.2642203562423147
2020-03-10,1.2719355744448186
2020-03-11,1.2637413432987012
2020-03-12,1.2545085467456147
2020-03-13,1.2500080603343293
2020-03-16,1.239931231534286
2020-03-17,1.239931231534286
2020-03-18,1.239931231534286
2020-03-19,1.2399006801029666
2020-03-20,1.2396289205647266
2020-03-23,1.238039997214542
2020-03-24,1.2401520852060228
2020-03-25,1.2405928595872613
2020-03-26,1.2429700400090073
2020-03-27,1.2415104170161233
2020-03-30,1.2415156895035304
2020-03-31,1.2415303523884291
2020-04-01,1.2399868083578638
2020-04-02,1.24013530182244
2020-04-03,1.2410856211264876
2020-04-07,1.2430824357439096
2020-04-08,1.2424197500131962
2020-04-09,1.2431005108735398
2020-04-10,1.2403304697724866
2020-04-13,1.241514151869736
2020-04-14,1.2467838936812172
2020-04-15,1.2415677312673479
2020-04-16,1.2441812115752011
2020-04-17,1.2510231128768587
2020-04-20,1.2560078315119687
2020-04-21,1.248207463138781
2020-04-22,1.2557915749791095
2020-04-23,1.2545539607143772
2020-04-24,1.251231438587984
2020-04-27,1.253137106922481
2020-04-28,1.2673390381633993
2020-04-29,1.265672660465966
2020-04-30,1.2754043362695702
2020-05-06,1.2774370707503973
2020-05-07,1.2742915693232146
2020-05-08,1.2798300275050931
2020-05-11,1.27677061003077
2020-05-12,1.2822979739097637
2020-05-13,1.2842315345668245
2020-05-14,1.2732441757041029
2020-05-15,1.2713556736668374
2020-05-18,1.2715555672676135
2020-05-19,1.2777963457163153
2020-05-20,1.274484917527158
2020-05-21,1.2722350283060537
2020-05-22,1.2595171640792246
2020-05-25,1.2649027917872595
2020-05-26,1.268301275479363
2020-05-27,1.2663576278480624
2020-05-28,1.26384540455585
2020-05-29,1.2713257503702307
2020-06-01,1.2796542580101704
2020-06-02,1.2762659470038624
2020-06-03,1.2761314135469055
2020-06-04,1.2744545370088283
2020-06-05,1.2818792599393423
2020-06-08,1.286009863964714
2020-06-09,1.2930721367758111
2020-06-10,1.2921340550261606
2020-06-11,1.2906452974844198
2020-06-12,1.2927908621685849
2020-06-15,1.2818874246669736
2020-06-16,1.2901998359866298
2020-06-17,1.2910062557566468
2020-06-18,1.2959461509681889
2020-06-19,1.308487216324867
2020-06-22,1.3114510100507366
2020-06-23,1.3250701467755468
2020-06-24,1.3304534765106342
2020-06-29,1.3338385426639392
2020-06-30,1.3491695411290787
2020-07-01,1.3648667615993146
2020-07-02,1.3777657087410735
2020-07-03,1.3912197755763056
2020-07-06,1.4486532547665243
2020-07-07,1.4589023109107786
2020-07-08,1.472132779357051
2020-07-09,1.4932267704177828
2020-07-10,1.4776117195579648
2020-07-13,1.513217413215106
2020-07-14,1.5046623901789764
2020-07-15,1.5075187187593955
2020-07-16,1.4362080338537007
2020-07-17,1.4474244258368834
2020-07-20,1.4666247076130536
2020-07-21,1.4776812168032172
2020-07-22,1.4807921767447105
2020-07-23,1.4942597056224745
2020-07-24,1.4612319481207905
2020-07-27,1.4722435796609934
2020-07-28,1.4719905889148805
2020-07-29,1.4853576590568094
2020-07-30,1.490047327874478
2020-07-31,1.4968365164947235
2020-08-03,1.5045640318682594
2020-08-04,1.502979824816537
2020-08-05,1.50702670315588
2020-08-06,1.5009224466941047
2020-08-07,1.4997868949008664
2020-08-10,1.4965648993251695
2020-08-11,1.4857441718280577
2020-08-12,1.4771251036358028
2020-08-13,1.4772284961960636
2020-08-14,1.479238529350603
2020-08-17,1.4873130298491597
2020-08-18,1.4875970357688528
2020-08-19,1.4819280895628382
2020-08-20,1.4750097772470099
2020-08-21,1.4764909477001877
2020-08-24,1.4801366746845486
2020-08-25,1.4826386844313706
2020-08-26,1.4841057729360116
2020-08-27,1.4853617048355445
2020-08-28,1.494696476544873
2020-08-31,1.4953966378373589
2020-09-01,1.4962423740890585
2020-09-02,1.496632655785258
2020-09-03,1.4977818393725775
2020-09-04,1.4891393814137541
2020-09-07,1.477087720934818
2020-09-08,1.4747526107784534
2020-09-09,1.463602993976823
2020-09-10,1.4680740320020238
2020-09-11,1.4758088139657337
2020-09-14,1.4792180406896154
2020-09-15,1.4836872526399003
2020-09-16,1.486319829845061
2020-09-17,1.4871852076631344
2020-09-18,1.4915750694449628
2020-09-21,1.4829344286473103
2020-09-22,1.4756348833057853
2020-09-23,1.4787598632352923
2020-09-24,1.4674092209677747
2020-09-25,1.4669245952646315
2020-09-28,1.473266152066279
2020-09-29,1.4726256838865432
2020-09-30,1.4767601483393957
2020-10-09,1.4845382908893983
2020-10-12,1.5020535126075423
2020-10-13,1.5116436597652059
2020-10-14,1.5099181861254045
2020-10-15,1.505425098943736
2020-10-16,1.4997292958080373
2020-10-19,1.4913339922763413
2020-10-20,1.5080085548351758
2020-10-21,1.5053955535243817
2020-10-22,1.5054751757775275
2020-10-23,1.4888223720538982
2020-10-26,1.491707259924288
2020-10-27,1.4919239067919856
2020-10-28,1.5004966406119329
2020-10-29,1.507383400242226
2020-10-30,1.4995297079831866
2020-11-02,1.5200537715557123
2020-11-03,1.5252435035893324
2020-11-04,1.5339482119261951
2020-11-05,1.544976725968991
2020-11-06,1.549833866090741
2020-11-09,1.5587491927731485
2020-11-10,1.553990058207254
2020-11-11,1.539356903480569
2020-11-12,1.5437267582895542
2020-11-13,1.5324339925207942
2020-11-16,1.5463124560580652
2020-11-17,1.5431734570057165
2020-11-18,1.541170048085892
2020-11-19,1.5446729636127121
2020-11-20,1.5495523357303553
2020-11-23,1.5599934528903463
2020-11-24,1.5537272579214558
2020-11-25,1.5428950243157982
2020-11-26,1.5469342640765473
2020-11-27,1.5584911647314692
2020-11-30,1.5555098079905776
2020-12-01,1.5697054162645627
2020-12-02,1.5686338573951626
2020-12-03,1.5617966379575656
2020-12-04,1.563327043023003
2020-12-07,1.5526360875949774
2020-12-08,1.5505541071677027
2020-12-09,1.5415595806123334
2020-12-10,1.5409387695140147
2020-12-11,1.539685664307723
2020-12-14,1.5447504769624885
2020-12-15,1.550191517247332
2020-12-16,1.555144682918438
2020-12-17,1.5661036796396863
2020-12-18,1.565806611399298
2020-12-21,1.5831220676344622
2020-12-22,1.5794742273753686
2020-12-23,1.5895663794344066
2020-12-24,1.5863867281676038
2020-12-25,1.5974013437143515
2020-12-28,1.605508400050862
2020-12-29,1.5910221996234126
2020-12-30,1.6146480628521205
2020-12-31,1.6313835010325193
2021-01-04,1.6579576331217776
2021-01-05,1.6926488199586196
2021-01-06,1.699174203070103
2021-01-07,1.7351845231680365
2021-01-08,1.7200651389901112
2021-01-11,1.7114096608595082
2021-01-12,1.7501083594075904
2021-01-13,1.7384387815159026
2021-01-14,1.7042415792765506
2021-01-15,1.7030114085117378
2021-01-18,1.7141273540159043
2021-01-19,1.6958655896535826
2021-01-20,1.6979126077441729
2021-01-21,1.7121938064763085
2021-01-22,1.7073883126089753
2021-01-25,1.7127483526688219
2021-01-26,1.6929674898344003
2021-01-27,1.7037273605899668
2021-01-28,1.6848195954042233
2021-01-29,1.6818408890858927
2021-02-01,1.6816727177651722
2021-02-02,1.6843939641570025
2021-02-03,1.6851908680862935
2021-02-04,1.6861849286941586
2021-02-05,1.692076768394184
2021-02-08,1.7022421076756085
2021-02-09,1.7115314415902454
2021-02-10,1.732062036757964
2021-02-18,1.7216848427349742
2021-02-19,1.7141913148012997
2021-02-22,1.6847504326893696
2021-02-23,1.6866423013397096
2021-02-24,1.6672332805239618
2021-02-25,1.671842070132206
2021-02-26,1.655206562481066
2021-03-01,1.6590212479316073
2021-03-02,1.6542780840377964
2021-03-03,1.6596589062000144
2021-03-04,1.6554927423636776
2021-03-05,1.6534124941655122
2021-03-08,1.6527878357107453
2021-03-09,1.6517275053660696
2021-03-10,1.6491276981690906
2021-03-11,1.652346300001445
2021-03-12,1.6549680728372025
2021-03-15,1.6553460088448149
2021-03-16,1.6566466796767456
2021-03-17,1.6526949409010925
2021-03-18,1.6522800613483848
2021-03-19,1.646669444688697
2021-03-22,1.6495746825147581
2021-03-23,1.6482408193772502
2021-03-24,1.6473477304085065
2021-03-25,1.6479561187295413
2021-03-26,1.6475005331073451
2021-03-29,1.649286263929007
2021-03-30,1.6495881272149784
2021-03-31,1.6484077850029
2021-04-01,1.6517984128081429
2021-04-02,1.654638486463323
2021-04-06,1.6496196018404694
2021-04-07,1.6427418281240365
2021-04-08,1.646607712417366
2021-04-09,1.6344624924419917
2021-04-12,1.6287812880692265
2021-04-13,1.6271868864876025
2021-04-14,1.6295632809028204
2021-04-15,1.628352359467957
2021-04-16,1.6329222314053218
2021-04-19,1.649073227241844
2021-04-20,1.6502873333955714
2021-04-21,1.652775842929538
2021-04-22,1.653564536493777
2021-04-23,1.6640281849414527
2021-04-26,1.658333177957463
2021-04-27,1.6601211247873722
2021-04-28,1.6745386052274518
2021-04-29,1.6798224481854764
2021-04-30,1.6845856932067118
2021-05-06,1.6712218635478775
2021-05-07,1.6540374712452355
2021-05-10,1.6605459509633134
2021-05-11,1.6606391325918455
2021-05-12,1.6637014647471535
2021-05-13,1.6591750196079564
2021-05-14,1.668822874632788
2021-05-17,1.6786154803274713
2021-05-18,1.676796541902398
2021-05-19,1.6756312362578127
2021-05-20,1.6729776351925854
2021-05-21,1.6658457412584262
2021-05-24,1.6728834304595555
2021-05-25,1.69295404983435
2021-05-26,1.6928644151436782
2021-05-27,1.6923184758374359
2021-05-28,1.697755649745589
2021-05-31,1.702739000808569
2021-06-01,1.7051648777052626
2021-06-02,1.6944087309743623
2021-06-03,1.6875715108857672
2021-06-04,1.6947179586136016
2021-06-07,1.6917280865968023
2021-06-08,1.6866215361005379
2021-06-09,1.6859665789059726
2021-06-10,1.6954566741353718
2021-06-11,1.6953142575662148
2021-06-15,1.69280616753585
2021-06-16,1.6771090097217467
2021-06-17,1.6826126478918246
2021-06-18,1.6868290308972982
2021-06-21,1.6849065656208608
2021-06-22,1.6847985528959635
2021-06-23,1.6884065752936868
2021-06-24,1.6897468825072726
2021-06-25,1.6920403366794219
2021-06-28,1.695581470654669
2021-06-29,1.6960812905766314
2021-06-30,1.7001718200652833
2021-07-01,1.6939649755468276
2021-07-02,1.6779297420672084
2021-07-05,1.6830890282004047
2021-07-06,1.674161146831495
2021-07-07,1.683641399803315
2021-07-08,1.683847157599978
2021-07-09,1.6849656403962783
2021-07-12,1.6881536822538843
2021-07-13,1.6832740811676403
2021-07-14,1.6732146361924851
2021-07-15,1.677223258776657
2021-07-16,1.6708455522119596
2021-07-19,1.6715718199903136
2021-07-20,1.67195947624699
2021-07-21,1.6847728975338918
2021-07-22,1.6837469706184205
2021-07-23,1.6819390400523042
2021-07-26,1.6696765741739892
2021-07-27,1.654366948593113
2021-07-28,1.6514319482126414
2021-07-29,1.6580938126387006
2021-07-30,1.6623700228397593
2021-08-02,1.6679861386432737
2021-08-03,1.6647724101462105
2021-08-04,1.6737657312520948
2021-08-05,1.6726733900943431
2021-08-06,1.6696826354012986
2021-08-09,1.6679973896299245
2021-08-10,1.6667869830909037
2021-08-11,1.6617910234459283
2021-08-12,1.6634155935671486
2021-08-13,1.6601625626963346
2021-08-16,1.6622925953198333
2021-08-17,1.6561134236424553
2021-08-18,1.6614620353641756
2021-08-19,1.6536911562024506
2021-08-20,1.6514138385547767
2021-08-23,1.6522950240477325
2021-08-24,1.6530033782137878
2021-08-25,1.65467879072501
2021-08-26,1.6518454890216159
2021-08-27,1.6555954745748014
2021-08-30,1.6559531367598244
2021-08-31,1.6617456477842916
2021-09-01,1.6610758398859817
2021-09-02,1.6662477804807323
2021-09-03,1.6618620847256302
2021-09-06,1.6647949430541995
2021-09-07,1.6692288141472276
2021-09-08,1.6665748392905329
2021-09-09,1.6732500960706689
2021-09-10,1.6769806401156768
2021-09-13,1.679841479281148
2021-09-14,1.6650763968286941
2021-09-15,1.6579780088339635
2021-09-16,1.6537323268836315
2021-09-17,1.6536405858707706
2021-09-22,1.658239376866794
2021-09-23,1.6555339289734812
2021-09-24,1.6535957160732178
2021-09-27,1.6570644799870462
2021-09-28,1.6573281684103454
2021-09-29,1.6571185105496045
2021-09-30,1.66058656189139
2021-10-08,1.6717606614960916
2021-10-11,1.6711166638540438
2021-10-12,1.6689384639330274
2021-10-13,1.6769902384348747
2021-10-14,1.6723255328943245
2021-10-15,1.673818084910338
2021-10-18,1.6540718669598062
2021-10-19,1.656455970697298
2021-10-20,1.6560107106057482
2021-10-21,1.6544045632974143
2021-10-22,1.659751320789513
2021-10-25,1.662553162703586
2021-10-26,1.6599026786400164
2021-10-27,1.6551787755604876
2021-10-28,1.65696713770918
2021-10-29,1.670174364488582
2021-11-01,1.6692481914589026
2021-11-02,1.665356761752842
2021-11-03,1.6554171270575555
2021-11-04,1.6611225694641616
2021-11-05,1.6583773457854827
2021-11-08,1.6559464914963424
2021-11-09,1.6523608598503454
2021-11-10,1.644881015797728
2021-11-11,1.6495045747202
2021-11-12,1.6477201578791771
2021-11-15,1.6419573111444925
2021-11-16,1.6387565414528684
2021-11-17,1.636582480537715
2021-11-18,1.6304255385323367
2021-11-19,1.6368744283473118
2021-11-22,1.6324951629031554
2021-11-23,1.6310368057756928
2021-11-24,1.6294105070424834
2021-11-25,1.6264145137700028
2021-11-26,1.6221263994184818
2021-11-29,1.6226642137955427
2021-11-30,1.6200359007701906
2021-12-01,1.6199342734922182
2021-12-02,1.6213120531172913
2021-12-03,1.6285568337230996
2021-12-06,1.6245893751818725
2021-12-07,1.6235060557312526
2021-12-08,1.6289643619501344
2021-12-09,1.6374407462250953
2021-12-10,1.6313037669894637
2021-12-13,1.6387957863148017
2021-12-14,1.6307549944106123
2021-12-15,1.624622450568175
2021-12-16,1.6293014967356454
2021-12-17,1.6162844263983114
2021-12-20,1.6128438413709518
2021-12-21,1.6194769143245136
2021-12-22,1.6184812616266355
2021-12-23,1.6237321753695078
2021-12-24,1.6260056194728496
2021-12-27,1.6237903426834548
2021-12-28,1.6235693036710377
2021-12-29,1.6165421037209369
2021-12-30,1.6192485628708038
2021-12-31,1.621137901513076
2022-01-04,1.627809798179467
2022-01-05,1.624124161482536
2022-01-06,1.6178865872746733
2022-01-07,1.6267038952018724
2022-01-10,1.6310800443768436
2022-01-11,1.625443181836641
2022-01-12,1.6223595604776737
2022-01-13,1.6144582804173218
2022-01-14,1.6051953339557539
2022-01-17,1.6045994213399515
2022-01-18,1.6097589802483645
2022-01-19,1.6113880589782337
2022-01-20,1.6158011830188241
2022-01-21,1.613516059282481
2022-01-24,1.6104461520623623
2022-01-25,1.6032588984986094
2022-01-26,1.604092638556276
2022-01-27,1.5990497369975853
2022-01-28,1.5934488372267381
2022-02-07,1.6040767877458022
2022-02-08,1.6088606921028432
2022-02-09,1.611218132361634
2022-02-10,1.6161154501799162
2022-02-11,1.61945946493377
2022-02-14,1.6101217984220788
2022-02-15,1.6041557920578633
2022-02-16,1.6068630935752002
2022-02-17,1.6074057773185526
2022-02-18,1.6139014475943374
2022-02-21,1.6106244519102002
2022-02-22,1.6044289551545519
2022-02-23,1.5980919799251914
2022-02-24,1.5933423959497046
2022-02-25,1.5913626508641647
2022-02-28,1.5933188945434467
2022-03-01,1.5966581096073225
2022-03-02,1.5986009784802024
2022-03-03,1.5979308234884126
2022-03-04,1.5962085861115367
2022-03-07,1.5943559586093499
2022-03-08,1.588776310736641
2022-03-09,1.5887058297701784
2022-03-10,1.5901940526033822
2022-03-11,1.590478228115238
2022-03-14,1.5862806745496016
2022-03-15,1.5772390706075583
2022-03-16,1.5821276930886476
2022-03-17,1.582919265260822
2022-03-18,1.5831585685976206
2022-03-21,1.587039361216114
2022-03-22,1.5853006317368106
2022-03-23,1.5831320492458663
2022-03-24,1.5814256482216933
2022-03-25,1.5782135449063313
2022-03-28,1.578329937153554
2022-03-29,1.580504973431419
2022-03-30,1.5817894147076899
2022-03-31,1.581687072999653
2022-04-01,1.583217495049616
2022-04-06,1.5856120553891138
2022-04-07,1.5801711107720995
2022-04-08,1.585375625713383
2022-04-11,1.5755600818621296
2022-04-12,1.5761695840330348
2022-04-13,1.5773635813694638
2022-04-14,1.5854282609551569
2022-04-15,1.583720756598661
2022-04-18,1.5703609178943636
2022-04-19,1.565951205832942
2022-04-20,1.5566063418596485
2022-04-21,1.5512117541976067
2022-04-22,1.5529296368193701
2022-04-25,1.5372344677377299
2022-04-26,1.5383040945292308
2022-04-27,1.5418406081935527
2022-04-28,1.541456206057343
2022-04-29,1.5499671087061302
2022-05-05,1.5462390902855092
2022-05-06,1.5336452909904021
2022-05-09,1.528900023179066
2022-05-10,1.5334258341235363
2022-05-11,1.5360525518543466
2022-05-12,1.5364147960046162
2022-05-13,1.5420376301712067
2022-05-16,1.5384914266306546
2022-05-17,1.5446633697953862
2022-05-18,1.54435635901043
2022-05-19,1.5505783686111574
2022-05-20,1.5554506401251322
2022-05-23,1.5519563553523748
2022-05-24,1.542346322099201
2022-05-25,1.5461267844752558
2022-05-26,1.5465534335851707
2022-05-27,1.5465523672231274
2022-05-30,1.5481472207255036
2022-05-31,1.556573344279467
2022-06-01,1.5542673083509346
2022-06-02,1.5594258392804217
2022-06-06,1.5769332393162454
2022-06-07,1.5778913855654755
2022-06-08,1.5905114848255075
2022-06-09,1.5753865539277523
2022-06-10,1.5909432230578122
2022-06-13,1.5764341726983093
2022-06-14,1.5850006947676034
2022-06-15,1.5933100879171007
2022-06-16,1.5867222801030563
2022-06-17,1.5975334394473537
2022-06-20,1.6042398252010401
2022-06-21,1.6056111996734794
2022-06-22,1.5931029159096082
2022-06-23,1.6092797903706595
2022-06-24,1.6230211380343469
2022-06-27,1.6401420168356802
2022-06-28,1.6525208467052028
2022-06-29,1.6334040904327736
2022-06-30,1.655119869481462
2022-07-01,1.6490368151955275
2022-07-04,1.663531758442947
2022-07-05,1.6597344593166208
2022-07-06,1.6372347475573987
2022-07-07,1.6340505102790015
2022-07-08,1.6372401540998676
2022-07-11,1.6277627930139758
2022-07-12,1.6255317111395038
2022-07-13,1.6254046951978935
2022-07-14,1.6274882855782393
2022-07-15,1.6162069216301584
2022-07-18,1.6179585602753552
2022-07-19,1.6165351406326334
2022-07-20,1.6150444309772214
2022-07-21,1.6152395469259078
2022-07-22,1.6152890183590924
2022-07-25,1.615606114602444
2022-07-26,1.6117694581049344
2022-07-27,1.611194620812671
2022-07-28,1.6097105888678958
2022-07-29,1.609072918412182
2022-08-01,1.6079755677080443
2022-08-02,1.606636885603271
2022-08-03,1.6043589994438472
2022-08-04,1.606196811368433
2022-08-05,1.606117105498977
2022-08-08,1.6072183478240438
2022-08-09,1.6070519668497227
2022-08-10,1.6055436723443335
2022-08-11,1.6098357305711344
2022-08-12,1.6081061621697283
2022-08-15,1.6032674185191615
2022-08-16,1.6021666341158778
2022-08-17,1.6055403507169446
2022-08-18,1.6012070473437399
2022-08-19,1.5998562608676576
2022-08-22,1.604632930605383
2022-08-23,1.6028855183556476
2022-08-24,1.5962445788766721
2022-08-25,1.602380947041909
2022-08-26,1.5998671119212564
2022-08-29,1.5974331198956002
2022-08-30,1.594869234899138
2022-08-31,1.595696915750679
2022-09-01,1.5932586294639164
2022-09-02,1.5898512503866211
2022-09-05,1.5930894837068355
2022-09-06,1.595068431165839
2022-09-07,1.5919689899407563
2022-09-08,1.593233121799798
2022-09-09,1.6035644446504909
2022-09-13,1.6048644243841568
2022-09-14,1.6003592543820422
2022-09-15,1.6033372462945503
2022-09-16,1.5868932641033653
2022-09-19,1.5909476146786128
2022-09-20,1.5851202444189734
2022-09-21,1.5806469549454192
2022-09-22,1.5775184619403646
2022-09-23,1.5768747413011093
2022-09-26,1.5757467827104414
2022-09-27,1.5784972736956062
2022-09-28,1.5769690080697136
2022-09-29,1.5743238467039082
2022-09-30,1.5736842494589978
2022-10-10,1.5652397469087993
2022-10-11,1.5648226071462479
2022-10-12,1.563984517206719
2022-10-13,1.5638546130600126
2022-10-14,1.5649568303685333
2022-10-17,1.5663115312843485
2022-10-18,1.5661056484316758
2022-10-19,1.5640944330902187
2022-10-20,1.5650088478955009
2022-10-21,1.5658761544023538
2022-10-24,1.5615548997965623
2022-10-25,1.5587139176820202
2022-10-26,1.562684640612621
2022-10-27,1.5626282691322824
2022-10-28,1.560171183074266
2022-10-31,1.5642894438715107
2022-11-01,1.5669681489414697
2022-11-02,1.5699103339636278
2022-11-03,1.5671554059441997
2022-11-04,1.5731486320744477
2022-11-07,1.5749377086817442
2022-11-08,1.5705290507826795
2022-11-09,1.567356941098271
2022-11-10,1.5612416742414972
2022-11-11,1.5693289134444217
2022-11-14,1.5689653478219314
2022-11-15,1.5821184680595108
2022-11-16,1.575473589032315
2022-11-17,1.5715269563975163
2022-11-18,1.567057672149675
2022-11-21,1.560460629045756
2022-11-22,1.5624275995013366
2022-11-23,1.5596019847674893
2022-11-24,1.5572693215735436
2022-11-25,1.5636865481482396
2022-11-28,1.5498708564298136
2022-11-29,1.5691865242093872
2022-11-30,1.5661781023835712
2022-12-01,1.57179478867547
2022-12-02,1.5630223591968688
2022-12-05,1.5850537848509216
2022-12-06,1.5869890447497699
2022-12-07,1.5807780527130855
2022-12-08,1.5812917814120966
2022-12-09,1.6012201654668636
2022-12-12,1.5852012770000976
2022-12-13,1.5872929853064979
2022-12-14,1.5974933534151434
2022-12-15,1.5898012967546644
2022-12-16,1.5960083387269053
2022-12-19,1.581459121185192
2022-12-20,1.5629909765860208
2022-12-21,1.5657593528118936
2022-12-22,1.5677569796217605
2022-12-23,1.5684563838470367
2022-12-26,1.5643898690417293
2022-12-27,1.5677113447078068
2022-12-28,1.5660574789752628
2022-12-29,1.5636005043202035
2022-12-30,1.5641437594991103
2023-01-03,1.5631893876458172
2023-01-04,1.564417955541658
2023-01-05,1.5678574594176118
2023-01-06,1.5670709802581286
2023-01-09,1.5697217242728603
2023-01-10,1.5694417157075093
2023-01-11,1.5697971099691377
2023-01-12,1.568950527465041
2023-01-13,1.5849541935808507
2023-01-16,1.598198285460945
2023-01-17,1.593884982328395
2023-01-18,1.588030122876042
2023-01-19,1.5962448436157524
2023-01-20,1.5982116650827087
2023-01-30,1.5978473218929066
2023-01-31,1.5874378145909482
2023-02-01,1.6002094304656784
2023-02-02,1.5928817974880694
2023-02-03,1.5821553222376992
2023-02-06,1.5711080714207497
2023-02-07,1.5710356552569775
2023-02-08,1.5689180179450823
2023-02-09,1.5733766923355763
2023-02-10,1.568728662831222
2023-02-13,1.571692381198375
2023-02-14,1.5735193553406008
2023-02-15,1.5718068668808847
2023-02-16,1.5705661160286035
2023-02-17,1.5683772542569911
2023-02-20,1.5768248281830004
2023-02-21,1.5783339756460162
2023-02-22,1.5769589293430752
2023-02-23,1.5771021397283322
2023-02-24,1.5720503232196226
2023-02-27,1.5700590180256229
2023-02-28,1.5722628894010073
2023-03-01,1.578886671931277
2023-03-02,1.5800538378374023
2023-03-03,1.5839620052781735
2023-03-06,1.5782001784242448
2023-03-07,1.574277648367349
2023-03-08,1.5731820343061906
2023-03-09,1.5722253819269882
2023-03-10,1.5683562804341777
2023-03-13,1.5754968774284768
2023-03-14,1.5732077224511989
2023-03-15,1.5750751800774714
2023-03-16,1.5707144920402847
2023-03-17,1.575588649336506
2023-03-20,1.5747858704939401
2023-03-21,1.5740305195061022
2023-03-22,1.5758856379638682
2023-03-23,1.578225371294904
2023-03-24,1.575927078329036
2023-03-27,1.5699756972633039
2023-03-28,1.5667231706549931
2023-03-29,1.568708234302131
2023-03-30,1.5686619788526546
2023-03-31,1.5699460279103594
2023-04-03,1.569067518729243
2023-04-04,1.5745923607123489
2023-04-06,1.5772738509653608
2023-04-07,1.5828444325244981
2023-04-10,1.5840345198230048
2023-04-11,1.5862003836366807
2023-04-12,1.5915037758798638
2023-04-13,1.5828338028197368
2023-04-14,1.5865013252224212
2023-04-17,1.592018544387082
2023-04-18,1.5930102106853514
2023-04-19,1.5854909642461277
2023-04-20,1.582165811781131
2023-04-21,1.5696698852945448
2023-04-24,1.566316387405556
2023-04-25,1.5644300167971397
2023-04-26,1.561919357973485
2023-04-27,1.5658233193173765
2023-04-28,1.5656877536127494
2023-05-04,1.5647549782542667
2023-05-05,1.560250356682295
2023-05-08,1.5698219315238926
2023-05-09,1.5660488027758501
2023-05-10,1.5611682376912674
2023-05-11,1.5615306906447248
2023-05-12,1.5581771354580596
2023-05-15,1.5621874936678903
2023-05-16,1.5613019742894316
2023-05-17,1.558989055560036
2023-05-18,1.5585437670460955
2023-05-19,1.5554955789533174
2023-05-22,1.5574261235628681
2023-05-23,1.5543195487677466
2023-05-24,1.5520727847072284
2023-05-25,1.5503293698904563
2023-05-26,1.549720286597599
2023-05-29,1.5496150534312294
2023-05-30,1.5490599329504817
2023-05-31,1.5480866453152533
2023-06-01,1.5478878674519576
2023-06-02,1.5479622312938288
2023-06-05,1.5470045566094703
2023-06-06,1.5427990897547414
2023-06-07,1.5427584897786952
2023-06-08,1.5436550751900127
2023-06-09,1.543345212058281
2023-06-12,1.5436210461893618
2023-06-13,1.5430236102844967
2023-06-14,1.5442778522842096
2023-06-15,1.5481627543816197
2023-06-16,1.5510035959388262
2023-06-19,1.5452005276711775
2023-06-20,1.5466638367998047
2023-06-21,1.5416556721142154
2023-06-26,1.5384828285751877
2023-06-27,1.5428303294350374
2023-06-28,1.5415031480160872
2023-06-29,1.5394474511127045
2023-06-30,1.5411331732286018
2023-07-03,1.544958840729732
2023-07-04,1.5480383618794917
2023-07-05,1.5460749400531089
2023-07-06,1.5432806412314204
2023-07-07,1.5421070014108778
2023-07-10,1.5417402739414399
2023-07-11,1.545756236217588
2023-07-12,1.5438490023894473
2023-07-13,1.5495447479093043
2023-07-14,1.5477124815548808
2023-07-17,1.541631770201698
2023-07-18,1.541453859005571
2023-07-19,1.5408721562916272
2023-07-20,1.5369393560494469
2023-07-21,1.5374279818252718
2023-07-24,1.533375433238577
2023-07-25,1.5461697694655248
2023-07-26,1.5454841701067483
2023-07-27,1.545596136312831
2023-07-28,1.571741654296703
2023-07-31,1.5794971041905048
2023-08-01,1.5699519139185036
2023-08-02,1.5651564780601201
2023-08-03,1.5744964336274525
2023-08-04,1.5770440731729383
2023-08-07,1.5693480741049446
2023-08-08,1.56334973133942
2023-08-09,1.56151998764405
2023-08-10,1.5629453398390247
2023-08-11,1.5413309548839518
2023-08-14,1.537373076698268
2023-08-15,1.5351194364529193
2023-08-16,1.535344581085735
2023-08-17,1.5355910520221443
2023-08-18,1.535351828509245
2023-08-21,1.5329506605221226
2023-08-22,1.5331306278845627
2023-08-23,1.5326175224470118
2023-08-24,1.5323767802687775
2023-08-25,1.532900798015482
2023-08-28,1.5328073205643722
2023-08-29,1.5324092726605243
2023-08-30,1.5327288726378943
2023-08-31,1.5311881419856546
2023-09-01,1.5329900723993597
2023-09-04,1.5361221940153225
2023-09-05,1.5336077748065846
2023-09-06,1.5327220194722664
2023-09-07,1.5312135213545413
2023-09-08,1.5293572407495248
2023-09-11,1.5297304350925
2023-09-12,1.5293203481427362
2023-09-13,1.5282021016940381
2023-09-14,1.5294959416213751
2023-09-15,1.5287075267054406
2023-09-18,1.5304108629364728
2023-09-19,1.5302881018299042
2023-09-20,1.5287798273396611
2023-09-21,1.525717446619105
2023-09-22,1.5273218830226252
2023-09-25,1.5266569419217177
2023-09-26,1.5253587967251538
2023-09-27,1.524696910710685
2023-09-28,1.5243584422899974
2023-10-09,1.5254122407622417
2023-10-10,1.5251998979855599
2023-10-11,1.5278585885022478
2023-10-12,1.529214387435725
2023-10-13,1.52951385519586
2023-10-16,1.5277748328920118
2023-10-17,1.5294192840101537
2023-10-18,1.5295661303767458
2023-10-19,1.524826540471808
2023-10-20,1.522791767496262
2023-10-23,1.5250011507308463
2023-10-24,1.5241781718685377
2023-10-25,1.5248671106272405
2023-10-26,1.5240980877710046
2023-10-27,1.5262969344684039
2023-10-30,1.5337155342491464
2023-10-31,1.5328396847019534
2023-11-01,1.5311234393850315
2023-11-02,1.5284204306844018
2023-11-03,1.5302081675581873
2023-11-06,1.5347727037786378
2023-11-07,1.5316917394221174
2023-11-08,1.531044073144209
2023-11-09,1.528167931209465
2023-11-10,1.5265276753563626
2023-11-13,1.5225678053269178
2023-11-14,1.5216847892201786
2023-11-15,1.5238779391513653
2023-11-16,1.5196757531595861
2023-11-17,1.5184557465026205
2023-11-20,1.5167263391425208
2023-11-21,1.5170194707173164
2023-11-22,1.5161969383993075
2023-11-23,1.5160825616218716
2023-11-24,1.5167346872733136
2023-11-27,1.516651261779352
2023-11-28,1.5171578216206394
2023-11-29,1.5174312763002193
2023-11-30,1.5190497679588177
2023-12-01,1.5178407404032093
2023-12-04,1.5193327729355304
2023-12-05,1.515559547280604
2023-12-06,1.5157630695533422
2023-12-07,1.5152312835509705
2023-12-08,1.5162665475672983
2023-12-11,1.5173565270943457
2023-12-12,1.517267075491928
2023-12-13,1.516601785831162
2023-12-14,1.5159124904130694
2023-12-15,1.5152566610284763
2023-12-18,1.5159708743989821
2023-12-19,1.5154954043891564
2023-12-20,1.513729874444411
2023-12-21,1.513426760623887
2023-12-22,1.512916302101874
2023-12-25,1.5136654124444524
2023-12-26,1.5132234263336204
2023-12-27,1.514070888040403
2023-12-28,1.5138065600649506
2023-12-29,1.5191064287232734
2024-01-02,1.515445927204108
2024-01-03,1.5147500029655068
2024-01-04,1.513349289508295
2024-01-05,1.511326338985135
2024-01-08,1.506219052254795
2024-01-09,1.5091182933756602
2024-01-10,1.5083158205097402
2024-01-11,1.5078560721615186
2024-01-12,1.508617655167723
2024-01-15,1.5098143356244487
2024-01-16,1.5127383740879392
2024-01-17,1.5059724022102101
2024-01-18,1.5105113075113379
2024-01-19,1.5090988054828416
2024-01-22,1.507275191431226
2024-01-23,1.5068997883226578
2024-01-24,1.5095005527792467
2024-01-25,1.5149151957728593
2024-01-26,1.5177259175046558
2024-01-29,1.5190263019015362
2024-01-30,1.5132277620443488
2024-01-31,1.5120677319641513
2024-02-01,1.5093576881183044
2024-02-02,1.5086202358362895
2024-02-05,1.514722186437909
2024-02-06,1.5231033562344496
2024-02-07,1.5302678377976644
2024-02-08,1.532242987766371
2024-02-19,1.5363962941221017
2024-02-20,1.5398165571518068
2024-02-21,1.5522833478478533
2024-02-22,1.555767687672795
2024-02-23,1.5541059290821704
2024-02-26,1.5419434447116989
2024-02-27,1.5471219215967518
2024-02-28,1.5358466681503138
2024-02-29,1.5500647436784536
2024-03-01,1.5530648601774752
2024-03-04,1.5527588425097265
2024-03-05,1.5627564799950282
2024-03-06,1.5577320418193248
2024-03-07,1.5535974496334888
2024-03-08,1.5524878268801443
2024-03-11,1.5630165086410046
2024-03-12,1.5627644887477092
2024-03-13,1.5569686482246083
2024-03-14,1.5592076464898492
2024-03-15,1.5581345078232371
2024-03-18,1.5667216148428504
2024-03-19,1.5628695315464234
2024-03-20,1.5624224743306065
2024-03-21,1.5624672950523888
2024-03-22,1.5564182246439437
2024-03-25,1.552314634771439
2024-03-26,1.5559753095857434
2024-03-27,1.5494438229951024
2024-03-28,1.5503259240744092
2024-03-29,1.552866719159294
2024-04-01,1.560593786859563
2024-04-02,1.5572337948742443
2024-04-03,1.558783186090648
2024-04-08,1.554471941724248
2024-04-09,1.5514464570992192
2024-04-10,1.554148025714082
2024-04-11,1.5561317528639484
2024-04-12,1.5534705087827667
2024-04-15,1.5640034945201307
2024-04-16,1.5646080044131785
2024-04-17,1.569052635313034
2024-04-18,1.5702014468417553
2024-04-19,1.5711222630233355
2024-04-22,1.5637618152913406
2024-04-23,1.5574678595460403
2024-04-24,1.5576428931683248
2024-04-25,1.5629901693280213
2024-04-26,1.5655771794718196
2024-04-29,1.568992179172657
2024-04-30,1.5695740926692632
2024-05-06,1.585809598059006
2024-05-07,1.5860319969867556
2024-05-08,1.5766396231390511
2024-05-09,1.5858282713337717
2024-05-10,1.5872193224185085
2024-05-13,1.5866557618799897
2024-05-14,1.587675197223769
2024-05-15,1.5805267338236866
2024-05-16,1.586591170193329
2024-05-17,1.5972061786274265
2024-05-20,1.5970500468320532
2024-05-21,1.5940695273692873
2024-05-22,1.5942879312205238
2024-05-23,1.5851711283423824
2024-05-24,1.5743010854820056
2024-05-27,1.5763264086354714
2024-05-28,1.5717892752137228
2024-05-29,1.5749375084295705
2024-05-30,1.5735338148393239
2024-05-31,1.5691015764366893
2024-06-03,1.5716331892362956
2024-06-04,1.5726233517285018
2024-06-05,1.572653719542696
2024-06-06,1.5723509671681177
2024-06-07,1.5702451861999187
2024-06-11,1.570211271542304
2024-06-12,1.5718078326898182
2024-06-13,1.5730867297014006
2024-06-14,1.5734937094747246
2024-06-17,1.5773567225445606
2024-06-18,1.5784198897685908
2024-06-19,1.5779069725007302
2024-06-20,1.5776615077773002
2024-06-21,1.577914009177365
2024-06-24,1.5776826423577723
2024-06-25,1.5760753790931248
2024-06-26,1.5772590277753016
2024-06-27,1.577172522068598
2024-06-28,1.5803676616894398
2024-07-01,1.582751814557805
2024-07-02,1.5824317911520747
2024-07-03,1.5810032628013053
2024-07-04,1.582020905836073
2024-07-05,1.5803655454167251
2024-07-08,1.5820970074781384
2024-07-09,1.5864726467673622
2024-07-10,1.582840380508564
2024-07-11,1.5861088212875607
2024-07-12,1.5867354928250201
2024-07-15,1.5885967819759055
2024-07-16,1.5921120211093167
2024-07-17,1.5913833404215263
2024-07-18,1.591494670251036
2024-07-19,1.5941096754963255
2024-07-22,1.5886500446190046
2024-07-23,1.570984271356774
2024-07-24,1.565333631623189
2024-07-25,1.5659252918665438
2024-07-26,1.563657998045748
2024-07-29,1.557194062043703
2024-07-30,1.5556345583299738
2024-07-31,1.5587233235297002
2024-08-01,1.559020681994204
2024-08-02,1.5564338768098098
2024-08-05,1.5539515431604738
2024-08-06,1.5537279371054142
2024-08-07,1.552119681294111
2024-08-08,1.551818356850883
2024-08-09,1.548876303066786
2024-08-12,1.5509136142528561
2024-08-13,1.550270564903902
2024-08-14,1.5499821227712895
2024-08-15,1.5523255795305309
2024-08-16,1.5514182930062845
2024-08-19,1.5505094727074393
2024-08-20,1.5494922282233492
2024-08-21,1.5487674494149792
2024-08-22,1.548468949763086
2024-08-23,1.5511336824329132
2024-08-26,1.5499123738450573
2024-08-27,1.5494205154015528
2024-08-28,1.5464688891368248
2024-08-29,1.542536846107625
2024-08-30,1.5423083483137612
2024-09-02,1.533775945458084
2024-09-03,1.5378651357909185
2024-09-04,1.536639940677215
2024-09-05,1.5371117238154786
2024-09-06,1.5321406732971885
2024-09-09,1.5264521880198836
2024-09-10,1.5253596252642465
2024-09-11,1.531014190672278
2024-09-12,1.5294565635211543
2024-09-13,1.5275411439956303
2024-09-18,1.531270414368139
2024-09-19,1.53261342765981
2024-09-20,1.5311386256976685
2024-09-23,1.5312594378400322
2024-09-24,1.5392567276403653
2024-09-25,1.549793155089092
2024-09-26,1.5832681505697115
2024-09-27,1.6447069269514822
2024-09-30,1.747123660011557
2024-10-08,1.810659706041294
2024-10-09,1.708588762503571
2024-10-10,1.7294106437961365
2024-10-11,1.700806615925342
2024-10-14,1.7216777196233712
2024-10-15,1.6926211881208906
2024-10-16,1.6828499159291568
2024-10-17,1.660327067045011
2024-10-18,1.691471933077588
2024-10-21,1.6967207561385873
2024-10-22,1.7080046482065268
2024-10-23,1.715041537339136
2024-10-24,1.7006085974679717
2024-10-25,1.7094388944156858
2024-10-28,1.7132509060018677
2024-10-29,1.7040177850076208
2024-10-30,1.6995783903248927
2024-10-31,1.703152595297628
2024-11-01,1.7032915290477653
2024-11-04,1.7115757284115607
2024-11-05,1.7260957361561589
2024-11-06,1.7224795369893708
2024-11-07,1.7459029984264425
2024-11-08,1.7338978881178424
2024-11-11,1.7323108468115545
2024-11-12,1.7260449088332428
2024-11-13,1.7257369844995156
2024-11-14,1.7118492823944895
2024-11-15,1.698546930717737
2024-11-18,1.6908524031947139
2024-11-19,1.690888909642713
2024-11-20,1.6906834546996585
2024-11-21,1.6911761746277063
2024-11-22,1.6841996045824348
2024-11-25,1.684505793610176
2024-11-26,1.683793903234313
2024-11-27,1.6839713269863013
2024-11-28,1.6838806342273491
2024-11-29,1.683506288655907
2024-12-02,1.683017325211696
2024-12-03,1.682779326081189
2024-12-04,1.6838586509070612
2024-12-05,1.6828112507829205
2024-12-06,1.6838185471559028
2024-12-09,1.6842602578995254
2024-12-10,1.683104446722699
2024-12-11,1.6833750394699616
2024-12-12,1.6847079391886493
2024-12-13,1.6748558363218127
2024-12-16,1.6757734099351351
2024-12-17,1.6762862889484305
2024-12-18,1.6775792898306157
2024-12-19,1.6764128240822311
2024-12-20,1.6723779673025665
2024-12-23,1.6745386630516361
2024-12-24,1.6801974417045773
2024-12-25,1.6796926693126688
2024-12-26,1.6822855784502602
2024-12-27,1.6813954610011486
2024-12-30,1.6832909664640703
2024-12-31,1.6794679024353159
2025-01-02,1.6702741426245946
2025-01-03,1.6684402644452536
2025-01-06,1.669353907503272
2025-01-07,1.6692434271637073
2025-01-08,1.672022557964263
2025-01-09,1.6722395808846633
2025-01-10,1.6702044784615044
2025-01-13,1.6674474950803568
2025-01-14,1.6686861606820267
2025-01-15,1.6682223771738431
2025-01-16,1.6699811676626097
2025-01-17,1.6695212489750157
2025-01-20,1.668779955234844
2025-01-21,1.66870249970174
2025-01-22,1.6671952508469605
2025-01-23,1.6670597669611351
2025-01-24,1.6682701233729844
2025-01-27,1.668972197716175
2025-02-05,1.6689567195012125
2025-02-06,1.6700283134638378
2025-02-07,1.673704985366294
2025-02-10,1.6752259639143143
2025-02-11,1.6734041304417424
2025-02-12,1.6854948450208813
2025-02-13,1.6846712553609864
2025-02-14,1.6932910209735466
2025-02-17,1.6915695814148302
2025-02-18,1.6854909971986811
2025-02-19,1.6964258786295017
2025-02-20,1.69471776137067
2025-02-21,1.7063967585008708
2025-02-24,1.7032250864902172
2025-02-25,1.6924662800230774
2025-02-26,1.6995174891762386
2025-02-27,1.7038001906334794
2025-02-28,1.68671887188429
2025-03-03,1.6859068348637385
2025-03-04,1.6833582392880817
2025-03-05,1.6858460600486758
2025-03-06,1.6911242287776898
2025-03-07,1.6917047597715207
2025-03-10,1.6893213776260627
2025-03-11,1.6936536463974385
2025-03-12,1.6887985866367479
2025-03-13,1.6885224134667187
2025-03-14,1.7055380575566166
2025-03-17,1.7063949537589032
2025-03-18,1.7051874126840236
2025-03-19,1.7089931493393904
2025-03-20,1.6999851519402744
2025-03-21,1.6876059729193325
2025-03-24,1.6915631573012202
2025-03-25,1.6906427062953109
2025-03-26,1.6903914096508215
2025-03-27,1.691570535553369
2025-03-28,1.6883281862593622
2025-03-31,1.6855262785158118
2025-04-01,1.684604233804883
2025-04-02,1.682800589380984
2025-04-03,1.6839516637074148
2025-04-07,1.673719992611411
2025-04-08,1.678871249914024
2025-04-09,1.6798328815694643
2025-04-10,1.680987045796558
2025-04-11,1.6766307501104687
2025-04-14,1.6766286228177438
2025-04-15,1.6743915216411482
2025-04-16,1.678540641791604
2025-04-17,1.6783918046743163
2025-04-18,1.675818258663324
2025-04-21,1.672461529593387
2025-04-22,1.6719181395789529
2025-04-23,1.6676269682034484
2025-04-24,1.6691523756222149
2025-04-25,1.6673163114767258
2025-04-28,1.6661254439506752
2025-04-29,1.6656196208861813
2025-04-30,1.6636796452804843
2025-05-06,1.6631276575444105
2025-05-07,1.6625820323845304
2025-05-08,1.662799870645959
2025-05-09,1.6641519365388353
2025-05-12,1.672717332854275
2025-05-13,1.6742939135608708
2025-05-14,1.682347627125382
2025-05-15,1.6736534882592964
2025-05-16,1.6684912419553997
2025-05-19,1.6643168471554897
2025-05-20,1.6717672919057722
2025-05-21,1.6762810270715864
2025-05-22,1.6767071267586005
2025-05-23,1.6686253826052018
2025-05-26,1.6602308338245437
2025-05-27,1.6542830098140204
2025-05-28,1.6571480042624107
2025-05-29,1.6551262336573789
2025-05-30,1.6530066410362874
2025-06-03,1.6566727340236602
2025-06-04,1.656275607101644
2025-06-05,1.6539735372521576
2025-06-06,1.653734846288494
2025-06-09,1.6576010459489676
2025-06-10,1.6576728158893268
2025-06-11,1.6618087056937918
2025-06-12,1.6648509389750308
2025-06-13,1.6628822126453782
2025-06-16,1.6621598339481884
2025-06-17,1.6609416985464702
2025-06-18,1.65919520644255
2025-06-19,1.6544096227509666
2025-06-20,1.6561390322243073
2025-06-23,1.656852408367529
2025-06-24,1.6591813901806816
2025-06-25,1.6678982636178088
2025-06-26,1.6646551853721057
2025-06-27,1.6610925427126004
2025-06-30,1.6627199478999426
2025-07-01,1.6621936416281742
2025-07-02,1.6681169657227248
2025-07-03,1.6740845611931192
2025-07-04,1.676841673405067
2025-07-07,1.6732833574891786
2025-07-08,1.6840043371531113
2025-07-09,1.6812220937039757
2025-07-10,1.688160917482844
2025-07-11,1.688076938410186
2025-07-14,1.6888668547734087
2025-07-15,1.6862569613194123
2025-07-16,1.6858323620513311
2025-07-17,1.6927140062546897
2025-07-18,1.69701093938408
2025-07-21,1.7046252030837061
2025-07-22,1.7229879617538089
2025-07-23,1.7185711708436184
2025-07-24,1.7291983374222906
2025-07-25,1.714005056153473
2025-07-28,1.7108482136785144
2025-07-29,1.7119371975491329
2025-07-30,1.7142627088543887
2025-07-31,1.687323383328691
2025-08-01,1.6832052732977432
2025-08-04,1.6817696534933715
2025-08-05,1.6839500529014104
2025-08-06,1.6833116529040213
2025-08-07,1.6822441836014683
2025-08-08,1.682046793054802
2025-08-11,1.6831249688396421
2025-08-12,1.6861325823608913
2025-08-13,1.6908395003635215
2025-08-14,1.6890894745326162
2025-08-15,1.6983624095825818
2025-08-18,1.7038721343103453
2025-08-19,1.6960694808080539
2025-08-20,1.7028077190815492
2025-08-21,1.707281870713816
2025-08-22,1.7161183646956246
2025-08-25,1.7312999844834098
2025-08-26,1.7407013573415826
2025-08-27,1.718345685889689
2025-08-28,1.7244955476614359
2025-08-29,1.7317301280655049
2025-09-01,1.7344975113833347
2025-09-02,1.727288284287895
2025-09-03,1.718714803899017
2025-09-04,1.7083783265343082
2025-09-05,1.7296262193854401
2025-09-08,1.7371085502646142
2025-09-09,1.7327061354523412
2025-09-10,1.7262675984918785
2025-09-11,1.7355402618500995
2025-09-12,1.7307635404169466
2025-09-15,1.7350058560031745
2025-09-16,1.7332189187427975
2025-09-17,1.7364634332334663
2025-09-18,1.7282228037924587
2025-09-19,1.7301740870407494
2025-09-22,1.7332844136375065
2025-09-23,1.7332996244768306
2025-09-24,1.7405943921642828
2025-09-25,1.7452966692873424
2025-09-26,1.7401833949442405
2025-09-29,1.7457949742380192
2025-09-30,1.750776728796566
2025-10-09,1.7574576263524833
2025-10-10,1.7430053500793297
2025-10-13,1.7385545168719385
2025-10-14,1.736298759877205
2025-10-15,1.740978306787084
2025-10-16,1.74288949588625
2025-10-17,1.7361672298663375
2025-10-20,1.7327717505762443
2025-10-21,1.7344707928781
2025-10-22,1.7344004414327379
2025-10-23,1.7364331389471561
2025-10-24,1.734941772406797
2025-10-27,1.7384759042674842
2025-10-28,1.733611478042782
2025-10-29,1.7411177105764073
2025-10-30,1.7437435319856824
2025-10-31,1.7385433464295472
2025-11-03,1.7412164349311146
2025-11-04,1.7368658992556951
2025-11-05,1.7387940773689947
2025-11-06,1.7390994214383548
2025-11-07,1.7444470244817636
2025-11-10,1.7544493170419873
2025-11-11,1.7550650437465614
2025-11-12,1.7511892926015347
2025-11-13,1.7552431941122921
2025-11-14,1.7515265486592893
2025-11-17,1.7456333274385392
2025-11-18,1.7415992217879002
2025-11-19,1.7436953216272095
2025-11-20,1.737762461620386
2025-11-21,1.7340185921085667
2025-11-24,1.7307503079769293
2025-11-25,1.7312791543414028
2025-11-26,1.7309270004586603
2025-11-27,1.7313253505436699
2025-11-28,1.7316054930305778
2025-12-01,1.7318217316690296
2025-12-02,1.7333224629527422
2025-12-03,1.733314955155394
2025-12-04,1.732665147435514
2025-12-05,1.7327031681283334
2025-12-08,1.7326191542027676
2025-12-09,1.7293786559980526
2025-12-10,1.7276211390404552
2025-12-11,1.7256937930521727
2025-12-12,1.7292807186675858
2025-12-15,1.7271500561864497
2025-12-16,1.725328467900009
2025-12-17,1.7275255937329843
2025-12-18,1.7263720014723325
2025-12-19,1.728582111159457
2025-12-22,1.7296429689201216
2025-12-23,1.727815045252404
2025-12-24,1.7284016000566356
2025-12-25,1.7287542544603274
2025-12-26,1.7334199912351287
2025-12-29,1.7301488448886797
2025-12-30,1.7287827124137414
2025-12-31,1.7293607713184402
2026-01-05,1.732091062445802
2026-01-06,1.7451094329334809
2026-01-07,1.7375116509656725
2026-01-08,1.731594118598535
2026-01-09,1.7354119235409193
2026-01-12,1.7393640876281038
2026-01-13,1.7324027297371694
2026-01-14,1.7301176034446437
2026-01-15,1.7276580994261652
2026-01-16,1.7230991088740732
2026-01-19,1.7194345769233705
2026-01-20,1.7232288703649319
2026-01-21,1.723999885449434
2026-01-22,1.7229157647992785
2026-01-23,1.7215076257251094
2026-01-26,1.7189718679558137
2026-01-27,1.7174200931690813
2026-01-28,1.7187512932881117
2026-01-29,1.7225765577087375
2026-01-30,1.7105843705846633
2026-02-02,1.7060250047162697
2026-02-03,1.7108713244609575
2026-02-04,1.7174972625181086
2026-02-05,1.7166335927087146
2026-02-06,1.7129209552046851
2026-02-09,1.7157029428279427
2026-02-10,1.712118773574974
2026-02-11,1.7125637996150325
2026-02-12,1.7087016316833687
2026-02-13,1.7019372269964799
2026-02-24,1.7008120162509957
2026-02-25,1.7034904207020014
2026-02-26,1.6966593936943883
2026-02-27,1.696305649642165
2026-03-02,1.6999346123482386
2026-03-03,1.7014291775051023
2026-03-04,1.7010124328232563
2026-03-05,1.6982777259365411
2026-03-06,1.700154912905433
2026-03-09,1.7030361438003356
2026-03-10,1.6989122002767443
2026-03-11,1.704288944681492
2026-03-12,1.7060885028743318
2026-03-13,1.7049632145513764
2026-03-16,1.7080660759958073
2026-03-17,1.7070941899875316
2026-03-18,1.705099398334883
2026-03-19,1.7053484575521463
2026-03-20,1.707659016036303
2026-03-23,1.6993267349936332
2026-03-24,1.6983696137628153
2026-03-25,1.69770573233154
2026-03-26,1.69557192819836
2026-03-27,1.6981378098665474
2026-03-30,1.6976469503619447
2026-03-31,1.6963558492593744
2026-04-01,1.696014538301802
2026-04-02,1.6949314352837324
2026-04-03,1.6899458761680073
2026-04-07,1.6889505245266112
2026-04-08,1.6907865136272948
2026-04-09,1.6909543285851993
2026-04-10,1.6927726041561644
2026-04-13,1.690903936980729
2026-04-14,1.69394205139738
2026-04-15,1.6949859613657652
2026-04-16,1.6989489354063791
2026-04-17,1.69271749097498
2026-04-20,1.6979909279136276
2026-04-21,1.6990739223196463
2026-04-22,1.699972570011265
2026-04-23,1.6983665425442886
2026-04-24,1.6958211020213343
2026-04-27,1.6983402368975886
2026-04-28,1.697275189328748
2026-04-29,1.6995002183360322
2026-04-30,1.6987295182938196
2026-05-06,1.7047280235359525
2026-05-07,1.7035571318098377
2026-05-08,1.7009251951038153
2026-05-11,1.7112873556208863
2026-05-12,1.7080035455820592
2026-05-13,1.7079133936130806
2026-05-14,1.6964573158933418
2026-05-15,1.694583277909844
2026-05-18,1.6898982522698833
2026-05-19,1.690432323113342
2026-05-20,1.688582924881063
2026-05-21,1.6877917775015048
2026-05-22,1.6879306708653323
2026-05-25,1.6896389411087518
2026-05-26,1.688486105005133
2026-05-27,1.6880289026512758
2026-05-28,1.6867562759435222
2026-05-29,1.6837380120939471
2026-06-01,1.683624398522457
2026-06-02,1.683559483011785
2026-06-03,1.6831921538322614
2026-06-04,1.6822681189938056
2026-06-05,1.6831345237328155
2026-06-08,1.6847759737881456
2026-06-09,1.6836515285707978
2026-06-10,1.6850710860009983
2026-06-11,1.6853841615959404
2026-06-12,1.6855303960383121
2026-06-15,1.682943816485826
2026-06-16,1.6811747013178346
2026-06-17,1.6803444140506878
2026-06-18,1.674756086611318
2026-06-22,1.6775400715324573
2026-06-23,1.6754581472653785
2026-06-24,1.676346375789085
2026-06-25,1.6797424961957719
2026-06-26,1.6724393412086755
2026-06-29,1.672107698983127
2026-06-30,1.6753275300759172
2026-07-01,1.6779887095594999
2026-07-02,1.6735013452214649
2026-07-03,1.675930437039636
2026-07-06,1.67928473125607
2026-07-07,1.674523076647376
2026-07-08,1.6716792163207075
2026-07-09,1.6778591330675892
2026-07-10,1.6765632119083405
2026-07-13,1.675125047247899
2026-07-14,1.6771619509087805
2026-07-15,1.685923369826901
2026-07-16,1.6860998545192363
2026-07-17,1.6774983771162006
2026-07-20,1.6937618748410304
2026-07-21,1.6859169721932756
2026-07-22,1.6955511380586836
2026-07-23,1.6933744143272285
2026-07-24,1.680913000088739
2026-07-27,1.6824446822300443
2026-07-28,1.693329525467421
2026-07-29,1.7047760448708347
2026-07-30,1.7270791203330211
2026-07-31,1.7196393905311205
2026-08-03,1.715035788131527
2026-08-04,1.6940999206098641
2026-08-05,1.6922886688562675
2026-08-06,1.6850048671208435
2026-08-07,1.6862344958710538
2026-08-10,1.6920194321612192
2026-08-11,1.6821194897430358
2026-08-12,1.6866489337332473
2026-08-13,1.6826401365035897
2026-08-14,1.6780028136483995
2026-08-17,1.6763662714203087
2026-08-18,1.6760037069855565
2026-08-19,1.6724465754728148
2026-08-20,1.6756222391562583
2026-08-21,1.6743495872867753
2026-08-24,1.6743821373362078
2026-08-25,1.6736506384794472
2026-08-26,1.6741870988182679
2026-08-27,1.674499475605849
2026-08-28,1.6765398068722874
2026-08-31,1.6767705985032546
2026-09-01,1.6790525160526817
2026-09-02,1.6751090478143988
2026-09-03,1.676078206940589
2026-09-04,1.680007296503918
2026-09-07,1.6735478455087263
2026-09-08,1.6729109428490352
2026-09-09,1.672650016760324
2026-09-10,1.6719658794921193
2026-09-11,1.6698335051116047
2026-09-14,1.670555104661175
2026-09-15,1.6677772278984
2026-09-16,1.666343498084634
2026-09-17,1.6661560591738935
2026-09-18,1.665869383609185
2026-09-21,1.667409203281791
2026-09-22,1.6675644627276065
2026-09-23,1.6672614293569936
2026-09-24,1.6666202361781521
