date,equity
2018-10-16,1.0
2018-10-17,1.0
2018-10-18,1.0
2018-10-19,1.0
2018-10-22,1.0
2018-10-23,1.0
2018-10-24,1.0
2018-10-25,1.0
2018-10-26,1.0
2018-10-29,1.0
2018-10-30,1.0
2018-10-31,1.0
2018-11-01,1.0
2018-11-02,1.0
2018-11-05,1.0
2018-11-06,1.0
2018-11-07,1.0
2018-11-08,1.0
2018-11-09,1.0
2018-11-12,1.0
2018-11-13,0.9999345040127142
2018-11-14,0.9989380145685212
2018-11-15,1.0012783441532613
2018-11-16,1.004086671870834
2018-11-19,1.0069635783313742
2018-11-20,0.9962052625485982
2018-11-21,0.996534842041352
2018-11-22,0.9966211280418541
2018-11-23,0.9864883708386151
2018-11-26,0.9874639507394232
2018-11-27,0.9884485595488361
2018-11-28,0.9933460903463786
2018-11-29,0.9909476985282931
2018-11-30,0.9915082372560464
2018-12-03,0.998336048765831
2018-12-04,0.9989062074603867
2018-12-05,1.0053754503279957
2018-12-06,0.9890929883904794
2018-12-07,0.989155384773813
2018-12-10,0.9846242497824086
2018-12-11,0.9845831709784865
2018-12-12,0.9873257129753588
2018-12-13,0.9953989910788854
2018-12-14,0.9867516621730975
2018-12-17,0.985374877230794
2018-12-18,0.9839281039298624
2018-12-19,0.980708029979086
2018-12-20,0.9763516059488397
2018-12-21,0.9763733670164436
2018-12-24,0.9763094703213838
2018-12-25,0.9756095596871456
2018-12-26,0.9765811245574154
2018-12-27,0.9767511310131185
2018-12-28,0.977312819904891
2019-01-02,0.9746499559167051
2019-01-03,0.9750715553672034
2019-01-04,0.9743670537496697
2019-01-07,0.9741093016182795
2019-01-08,0.9746423315235586
2019-01-09,0.9747686669562108
2019-01-10,0.9731701222604213
2019-01-11,0.9740703352743566
2019-01-14,0.97153935136879
2019-01-15,0.978351093187167
2019-01-16,0.9787062588882768
2019-01-17,0.9760346745904932
2019-01-18,0.9901520040118147
2019-01-21,0.9934898897741632
2019-01-22,0.9783615050795729
2019-01-23,0.982380582616778
2019-01-24,0.9901326853941017
2019-01-25,0.9991839120825692
2019-01-28,1.0020317337979643
2019-01-29,1.0114337632115291
2019-01-30,1.0040809405371491
2019-01-31,1.022995428486725
2019-02-01,1.0350699783230555
2019-02-11,1.0545531683403442
2019-02-12,1.0614241866003808
2019-02-13,1.0816796632656667
2019-02-14,1.0904934292098023
2019-02-15,1.063058079232826
2019-02-18,1.106602572817625
2019-02-19,1.1020676341982079
2019-02-20,1.1139022273873571
2019-02-21,1.1147822169986241
2019-02-22,1.1397444746764245
2019-02-25,1.2015084677695407
2019-02-26,1.1830200903936914
2019-02-27,1.1709290757412514
2019-02-28,1.178356081072451
2019-03-01,1.2133403641630924
2019-03-04,1.2311704494040776
2019-03-05,1.2359173693130336
2019-03-06,1.2369620373049923
2019-03-07,1.204701455564693
2019-03-08,1.163996605327327
2019-03-11,1.1798746252023178
2019-03-12,1.183858926083811
2019-03-13,1.173233507838279
2019-03-14,1.1741704791112195
2019-03-15,1.1880688928672953
2019-03-18,1.2099444050003336
2019-03-19,1.2035500440836968
2019-03-20,1.1995626344305137
2019-03-21,1.1947511794352677
2019-03-22,1.1962973135661967
2019-03-25,1.1745281073229954
2019-03-26,1.1718115461960787
2019-03-27,1.1829266115253598
2019-03-28,1.1863322766161506
2019-03-29,1.2087114834131318
2019-04-01,1.2225972721278364
2019-04-02,1.2178588913418682
2019-04-03,1.2245416276049013
2019-04-04,1.2317421392833094
2019-04-08,1.2294898832665673
2019-04-09,1.2404930313382256
2019-04-10,1.2525014742699037
2019-04-11,1.2235932598914874
2019-04-12,1.219057602683845
2019-04-15,1.2198252819849307
2019-04-16,1.244708660022556
2019-04-17,1.2521679567496296
2019-04-18,1.2505145148631465
2019-04-19,1.2624715673100035
2019-04-22,1.2426163533815446
2019-04-23,1.242353869459452
2019-04-24,1.2451592378968857
2019-04-25,1.2347346243082786
2019-04-26,1.2215046438812371
2019-04-29,1.2313103095650058
2019-04-30,1.2296698327268045
2019-05-06,1.2077839038114357
2019-05-07,1.2130001080564057
2019-05-08,1.2114605867763928
2019-05-09,1.2094989682147392
2019-05-10,1.2143159175537475
2019-05-13,1.2137675168803794
2019-05-14,1.213293060428205
2019-05-15,1.215782907664945
2019-05-16,1.2155983388405809
2019-05-17,1.2097633692315835
2019-05-20,1.2062371839672354
2019-05-21,1.207631261777333
2019-05-22,1.2077115460058867
2019-05-23,1.2038981062012588
2019-05-24,1.2033659308482885
2019-05-27,1.2049742514031665
2019-05-28,1.2075580836920026
2019-05-29,1.2065505093926812
2019-05-30,1.206604474268054
2019-05-31,1.205990461824213
2019-06-03,1.2062377712142667
2019-06-04,1.2030394344589972
2019-06-05,1.2045954361061457
2019-06-06,1.1992525455356444
2019-06-10,1.2067744760897554
2019-06-11,1.2188764824856149
2019-06-12,1.2137437233119357
2019-06-13,1.2094205634694362
2019-06-14,1.2062436400076353
2019-06-17,1.2073214277186421
2019-06-18,1.2113602544920214
2019-06-19,1.2234667994887924
2019-06-20,1.2553684772417424
2019-06-21,1.2538794028501952
2019-06-24,1.2618686616806303
2019-06-25,1.251464141149945
2019-06-26,1.2516057089515904
2019-06-27,1.2731894940928377
2019-06-28,1.2737627951915915
2019-07-01,1.3117536209888763
2019-07-02,1.3157848432035684
2019-07-03,1.2982600903331225
2019-07-04,1.2891965090632473
2019-07-05,1.3004164142704624
2019-07-08,1.2709382729851404
2019-07-09,1.2706714322250823
2019-07-10,1.2732769870576237
2019-07-11,1.2706498843600371
2019-07-12,1.2761616504962279
2019-07-15,1.2797414862882293
2019-07-16,1.2708975814331456
2019-07-17,1.2742341205439827
2019-07-18,1.2688586958544936
2019-07-19,1.2747780163157305
2019-07-22,1.276760157587235
2019-07-23,1.2828157616616238
2019-07-24,1.2866769351554117
2019-07-25,1.2943645528457377
2019-07-26,1.3000149868152906
2019-07-29,1.3005792475611657
2019-07-30,1.3010778766844557
2019-07-31,1.2947543090088647
2019-08-01,1.2927344751331558
2019-08-02,1.2835119433200242
2019-08-05,1.2702442410609753
2019-08-06,1.2672919803684386
2019-08-07,1.2660022790011423
2019-08-08,1.2698132266769842
2019-08-09,1.2664904729506243
2019-08-12,1.268328839823158
2019-08-13,1.2682476822175397
2019-08-14,1.269436931553222
2019-08-15,1.272234444118627
2019-08-16,1.2733175149640148
2019-08-19,1.2808108924905222
2019-08-20,1.2843543340433214
2019-08-21,1.2816596595135687
2019-08-22,1.2861795523554418
2019-08-23,1.2929250100138554
2019-08-26,1.2856252944001114
2019-08-27,1.299552930620742
2019-08-28,1.3002511616583308
2019-08-29,1.2977632287273915
2019-08-30,1.3026688690823949
2019-09-02,1.3162212915228053
2019-09-03,1.3172235188888683
2019-09-04,1.3151323436020996
2019-09-05,1.3200790758132126
2019-09-06,1.3230675438289903
2019-09-09,1.325267845515662
2019-09-10,1.3201480613690737
2019-09-11,1.3035277445126732
2019-09-12,1.3082539809333298
2019-09-16,1.3042444864800224
2019-09-17,1.2913860616325417
2019-09-18,1.2920295741714698
2019-09-19,1.294465609983994
2019-09-20,1.2984051810436332
2019-09-23,1.2886100966785354
2019-09-24,1.2897190988797422
2019-09-25,1.2856301818493292
2019-09-26,1.2814736865705734
2019-09-27,1.2823437385225689
2019-09-30,1.2784050815576016
2019-10-08,1.2796626152769428
2019-10-09,1.276087419328127
2019-10-10,1.2779393131420742
2019-10-11,1.2814201024168248
2019-10-14,1.2835894384887931
2019-10-15,1.2890178360856268
2019-10-16,1.2877242088115075
2019-10-17,1.2891248687758772
2019-10-18,1.2830919533966518
2019-10-21,1.28805971061436
2019-10-22,1.2899135155613048
2019-10-23,1.2854134958578807
2019-10-24,1.285409248588329
2019-10-25,1.293124786158212
2019-10-28,1.2923071576295635
2019-10-29,1.2948438664010655
2019-10-30,1.2936398317967654
2019-10-31,1.2923550849414085
2019-11-01,1.3075746958590564
2019-11-04,1.313643259290566
2019-11-05,1.3223895014042133
2019-11-06,1.322346864395197
2019-11-07,1.3259116064617422
2019-11-08,1.3276624719436954
2019-11-11,1.3100702987003132
2019-11-12,1.3096063336920687
2019-11-13,1.3158811042195668
2019-11-14,1.3145248722346017
2019-11-15,1.3105714842804057
2019-11-18,1.3123981918967516
2019-11-19,1.322678686173152
2019-11-20,1.3144978796173128
2019-11-21,1.3106510969539533
2019-11-22,1.302234452359297
2019-11-25,1.3086554205181609
2019-11-26,1.312032004039194
2019-11-27,1.3093831270128178
2019-11-28,1.308877693796334
2019-11-29,1.303799584965816
2019-12-02,1.3096202489095852
2019-12-03,1.3126503730422052
2019-12-04,1.3113898962744257
2019-12-05,1.3159686809184996
2019-12-06,1.3204418674019949
2019-12-09,1.3241657517541794
2019-12-10,1.3275909637447658
2019-12-11,1.3249449752527407
2019-12-12,1.320339433001937
2019-12-13,1.3272439949742094
2019-12-16,1.328656881400578
2019-12-17,1.3364247801197549
2019-12-18,1.3309585688299954
2019-12-19,1.3303556649626078
2019-12-20,1.3300713278178466
2019-12-23,1.3208307092391847
2019-12-24,1.3307867217297675
2019-12-25,1.3329451391710685
2019-12-26,1.3409680616743773
2019-12-27,1.3396220764916087
2019-12-30,1.3562623139882681
2019-12-31,1.3580181024159421
2020-01-02,1.377265785516983
2020-01-03,1.375354288820806
2020-01-06,1.3691410325282023
2020-01-07,1.3751306663335567
2020-01-08,1.364657510333333
2020-01-09,1.384775263482476
2020-01-10,1.3838347141762584
2020-01-13,1.3974053900768764
2020-01-14,1.3937283541674044
2020-01-15,1.390473622242815
2020-01-16,1.3883852301292419
2020-01-17,1.3910784946826444
2020-01-20,1.3993381031335268
2020-01-21,1.382946345335323
2020-01-22,1.3923241270762556
2020-01-23,1.371976503158525
2020-02-03,1.3513726631968388
2020-02-04,1.3598382438893624
2020-02-05,1.372904186190971
2020-02-06,1.3785687061626954
2020-02-07,1.3752512058083386
2020-02-10,1.3778960141985455
2020-02-11,1.3764701212565527
2020-02-12,1.3774203737205342
2020-02-13,1.3760992450231115
2020-02-14,1.37623424555363
2020-02-17,1.3864693686272738
2020-02-18,1.3876674046737685
2020-02-19,1.3862442284334795
2020-02-20,1.396301636734685
2020-02-21,1.3985891541854134
2020-02-24,1.3988394931412096
2020-02-25,1.4077806943145028
2020-02-26,1.3874053934922206
2020-02-27,1.3881932175439202
2020-02-28,1.3741012045459975
2020-03-02,1.3892152275448013
2020-03-03,1.3875121714673988
2020-03-04,1.3890247137096536
2020-03-05,1.3995361730405864
2020-03-06,1.3839747315466369
2020-03-09,1.363036949339734
2020-03-10,1.3722623177702127
2020-03-11,1.3620315687022746
2020-03-12,1.3497075137403314
2020-03-13,1.343010699032807
2020-03-16,1.331664526826763
2020-03-17,1.331664526826763
2020-03-18,1.331664526826763
2020-03-19,1.3316374064151206
2020-03-20,1.3313457820758197
2020-03-23,1.3296398376130543
2020-03-24,1.3319089292508721
2020-03-25,1.3323824349752194
2020-03-26,1.3349396313641417
2020-03-27,1.3333721430656926
2020-03-30,1.3333779954605158
2020-03-31,1.3333940135096924
2020-04-01,1.3317364115696837
2020-04-02,1.3318963483940158
2020-04-03,1.3329171118964078
2020-04-07,1.3351017206099236
2020-04-08,1.3342542518798313
2020-04-09,1.3351004148355243
2020-04-10,1.3321696020316054
2020-04-13,1.3337340581981982
2020-04-14,1.3409567297003413
2020-04-15,1.3341802417321003
2020-04-16,1.3370356010977626
2020-04-17,1.3451236440244503
2020-04-20,1.3522511199575542
2020-04-21,1.3413569414714694
2020-04-22,1.3510074169560227
2020-04-23,1.3503163140495615
2020-04-24,1.3463273578740775
2020-04-27,1.3487297312936453
2020-04-28,1.3672115886509497
2020-04-29,1.366499745211829
2020-04-30,1.3776015411922204
2020-05-06,1.3789393720895118
2020-05-07,1.374381585221333
2020-05-08,1.3831199224799833
2020-05-11,1.3810100116502007
2020-05-12,1.3870615824542323
2020-05-13,1.389108832366754
2020-05-14,1.374260147052538
2020-05-15,1.3702860052568706
2020-05-18,1.371778417276863
2020-05-19,1.3821729148784667
2020-05-20,1.3775494440994795
2020-05-21,1.3742776916871076
2020-05-22,1.355602287413443
2020-05-25,1.3627146801267658
2020-05-26,1.3664937836214393
2020-05-27,1.365283476965401
2020-05-28,1.3624474997307496
2020-05-29,1.3718538299545089
2020-06-01,1.3830492546654203
2020-06-02,1.3795393977010724
2020-06-03,1.3795440544184105
2020-06-04,1.376373428593498
2020-06-05,1.3857473728683598
2020-06-08,1.3937582994351578
2020-06-09,1.4037052026228105
2020-06-10,1.4007432808671325
2020-06-11,1.3953439740853197
2020-06-12,1.3972396199953876
2020-06-15,1.3811367227213351
2020-06-16,1.3915312482532949
2020-06-17,1.3921939775110053
2020-06-18,1.3976227569456772
2020-06-19,1.4134460132364575
2020-06-22,1.4163776222462203
2020-06-23,1.4338031803685525
2020-06-24,1.4416121443459884
2020-06-29,1.4452285342670594
2020-06-30,1.4634049082329645
2020-07-01,1.48548050446809
2020-07-02,1.5024377026633933
2020-07-03,1.5208985092905976
2020-07-06,1.607935940193134
2020-07-07,1.6194493157710763
2020-07-08,1.6357137384660714
2020-07-09,1.6630368618006728
2020-07-10,1.6366223525952672
2020-07-13,1.6826659508786983
2020-07-14,1.6689087138391399
2020-07-15,1.6717484489051857
2020-07-16,1.5797899110624951
2020-07-17,1.5929091018289725
2020-07-20,1.6172783373053414
2020-07-21,1.6295065546285892
2020-07-22,1.6327236008354429
2020-07-23,1.6472255728724567
2020-07-24,1.6068666630871438
2020-07-27,1.6190586778975726
2020-07-28,1.61879488981535
2020-07-29,1.6341836375036725
2020-07-30,1.6394238636190326
2020-07-31,1.646979275817725
2020-08-03,1.656015609782552
2020-08-04,1.6543042977703126
2020-08-05,1.6583322385650738
2020-08-06,1.650780670815651
2020-08-07,1.6493411355989815
2020-08-10,1.6460889258696239
2020-08-11,1.6337062497078616
2020-08-12,1.6234847038462572
2020-08-13,1.6232022294530883
2020-08-14,1.6258270221482
2020-08-17,1.6357877940472314
2020-08-18,1.634819159320516
2020-08-19,1.6273102826699242
2020-08-20,1.6181616430563428
2020-08-21,1.6202152020144538
2020-08-24,1.6240682610824138
2020-08-25,1.627015421340394
2020-08-26,1.6283436610144417
2020-08-27,1.6294990766426185
2020-08-28,1.640824227273129
2020-08-31,1.6419862493829807
2020-09-01,1.6430040000544588
2020-09-02,1.6430065502092743
2020-09-03,1.6464090031682599
2020-09-04,1.635917961320267
2020-09-07,1.6209542546212177
2020-09-08,1.6196557826683373
2020-09-09,1.6055801989083514
2020-09-10,1.6108365948125887
2020-09-11,1.6189132924989411
2020-09-14,1.6235194812836038
2020-09-15,1.6285211014230072
2020-09-16,1.6320762156807698
2020-09-17,1.6318000590770172
2020-09-18,1.6404383769934816
2020-09-21,1.629566715950545
2020-09-22,1.6185692320734195
2020-09-23,1.620876646559042
2020-09-24,1.6052421962470358
2020-09-25,1.6055378234444184
2020-09-28,1.6134787093559098
2020-09-29,1.612174812189191
2020-09-30,1.6168674810681132
2020-10-09,1.6264881929360562
2020-10-12,1.6482283348144846
2020-10-13,1.6598372245900839
2020-10-14,1.6571962742773243
2020-10-15,1.6531312552091608
2020-10-16,1.6482675777416786
2020-10-19,1.6377703410119977
2020-10-20,1.657259608443662
2020-10-21,1.6566036858505984
2020-10-22,1.6580727273892564
2020-10-23,1.636504763692895
2020-10-26,1.639012760044102
2020-10-27,1.638831710454552
2020-10-28,1.6490089531019712
2020-10-29,1.6586152368792833
2020-10-30,1.6478198782099296
2020-11-02,1.6735278650705498
2020-11-03,1.6820655081987634
2020-11-04,1.694522719388977
2020-11-05,1.7085860541580795
2020-11-06,1.7195789262567334
2020-11-09,1.7313558473069794
2020-11-10,1.7267106641541485
2020-11-11,1.7125272582980642
2020-11-12,1.7147724966827342
2020-11-13,1.696196171291056
2020-11-16,1.7172803653767443
2020-11-17,1.7148323878912777
2020-11-18,1.712044890238304
2020-11-19,1.717020826891252
2020-11-20,1.7225449739480467
2020-11-23,1.7417825173148092
2020-11-24,1.7331117460597145
2020-11-25,1.7191726826171791
2020-11-26,1.7279013532244625
2020-11-27,1.7469670982708518
2020-11-30,1.7421102666922228
2020-12-01,1.763514782262718
2020-12-02,1.7634506377387211
2020-12-03,1.7504687766121956
2020-12-04,1.750767106346773
2020-12-07,1.733391466609899
2020-12-08,1.7292111151198684
2020-12-09,1.718710251484849
2020-12-10,1.7171791735579334
2020-12-11,1.7150519807789502
2020-12-14,1.7183553927134083
2020-12-15,1.7248700415825768
2020-12-16,1.7312931861331466
2020-12-17,1.7449052958724112
2020-12-18,1.7441480069099748
2020-12-21,1.764967997413586
2020-12-22,1.761190036348577
2020-12-23,1.7724705850645555
2020-12-24,1.7685965124730343
2020-12-25,1.7811038010618452
2020-12-28,1.7917126298406083
2020-12-29,1.7747632572417202
2020-12-30,1.8030928876615397
2020-12-31,1.8235892071320545
2021-01-04,1.8551863209190913
2021-01-05,1.8978063093513333
2021-01-06,1.9054244903253936
2021-01-07,1.9482537958182866
2021-01-08,1.9300885894905033
2021-01-11,1.9194615276818083
2021-01-12,1.9677606405222972
2021-01-13,1.9565340096470845
2021-01-14,1.9172485642630872
2021-01-15,1.9183290444444616
2021-01-18,1.9304320496105405
2021-01-19,1.9095432782348176
2021-01-20,1.91048650045398
2021-01-21,1.9266543802972436
2021-01-22,1.9178160788730456
2021-01-25,1.9232598224866186
2021-01-26,1.9000158713289654
2021-01-27,1.912801188127054
2021-01-28,1.8908804773042884
2021-01-29,1.8875645236408578
2021-02-01,1.8878568636063546
2021-02-02,1.8905827945890676
2021-02-03,1.8916705475377964
2021-02-04,1.8937879506607076
2021-02-05,1.9021647900618521
2021-02-08,1.9142301412778797
2021-02-09,1.924586946875546
2021-02-10,1.949685235518017
2021-02-18,1.93778082363481
2021-02-19,1.9280917785725074
2021-02-22,1.8975753292639421
2021-02-23,1.900845219760566
2021-02-24,1.8765494597484624
2021-02-25,1.8840339435341065
2021-02-26,1.8613063932204608
2021-03-01,1.8659432351777165
2021-03-02,1.8585300924619865
2021-03-03,1.8674125087774442
2021-03-04,1.862576827358546
2021-03-05,1.8607990597262372
2021-03-08,1.8598765547517977
2021-03-09,1.8578827917632028
2021-03-10,1.8527339138054888
2021-03-11,1.8586607154534225
2021-03-12,1.8637434464855391
2021-03-15,1.8655506350831061
2021-03-16,1.867495337358215
2021-03-17,1.8602265488437308
2021-03-18,1.8591906760781978
2021-03-19,1.848153225316483
2021-03-22,1.85357003559606
2021-03-23,1.850121186465871
2021-03-24,1.8481797702623577
2021-03-25,1.849342688859842
2021-03-26,1.8484716015178297
2021-03-29,1.8515072285507879
2021-03-30,1.85213462461527
2021-03-31,1.8512089725393381
2021-04-01,1.8553312019391601
2021-04-02,1.8575684206391818
2021-04-06,1.8507079438755696
2021-04-07,1.8432016490140073
2021-04-08,1.847494962293047
2021-04-09,1.8328524303523734
2021-04-12,1.8267806737115748
2021-04-13,1.823851010692854
2021-04-14,1.8264387152650785
2021-04-15,1.8249362753024658
2021-04-16,1.8306176781559735
2021-04-19,1.8493587871991668
2021-04-20,1.8505283053802355
2021-04-21,1.8516653172713877
2021-04-22,1.8522132680040588
2021-04-23,1.864267449494091
2021-04-26,1.857575828994145
2021-04-27,1.859398726592342
2021-04-28,1.8761493179781477
2021-04-29,1.88259619500677
2021-04-30,1.887327576067397
2021-05-06,1.8717524917175807
2021-05-07,1.851530804397036
2021-05-10,1.8606946023179993
2021-05-11,1.859470207886064
2021-05-12,1.8639566390039493
2021-05-13,1.8568657658789665
2021-05-14,1.867586615780423
2021-05-17,1.8792391298324964
2021-05-18,1.8786474225013245
2021-05-19,1.8743092522747569
2021-05-20,1.86959995685293
2021-05-21,1.8607710684156709
2021-05-24,1.8691803122392099
2021-05-25,1.8937355989282612
2021-05-26,1.8939213580053076
2021-05-27,1.8929913383678578
2021-05-28,1.8993318385260511
2021-05-31,1.9045664784037526
2021-06-01,1.9073359168243036
2021-06-02,1.8945892354880371
2021-06-03,1.8864932446336105
2021-06-04,1.8953499357771302
2021-06-07,1.8917533800368536
2021-06-08,1.8849201522408352
2021-06-09,1.88382147665385
2021-06-10,1.8943092522313467
2021-06-11,1.8951294677216073
2021-06-15,1.8906756180871436
2021-06-16,1.8737499106378224
2021-06-17,1.8783231308918187
2021-06-18,1.8798220228341596
2021-06-21,1.876358086825598
2021-06-22,1.8763505956278186
2021-06-23,1.8806857459316686
2021-06-24,1.8821387177272642
2021-06-25,1.8850856259165925
2021-06-28,1.8894087047000971
2021-06-29,1.8890255901365425
2021-06-30,1.8937694904035014
2021-07-01,1.887114567916177
2021-07-02,1.8678079287456781
2021-07-05,1.8727996036233294
2021-07-06,1.8631353018664019
2021-07-07,1.8737931134667947
2021-07-08,1.8735364722021917
2021-07-09,1.8747005687630123
2021-07-12,1.877773398459146
2021-07-13,1.8723548346940044
2021-07-14,1.861112632872549
2021-07-15,1.8655643725993902
2021-07-16,1.8582912836619707
2021-07-19,1.8592682451721598
2021-07-20,1.859580767391393
2021-07-21,1.8741448055511343
2021-07-22,1.8727587845410854
2021-07-23,1.870526232776818
2021-07-26,1.8566104383131068
2021-07-27,1.8387597027147538
2021-07-28,1.834820744496901
2021-07-29,1.8422527870590246
2021-07-30,1.8470039017187247
2021-08-02,1.8535403027651707
2021-08-03,1.8498949593034275
2021-08-04,1.8598918733058214
2021-08-05,1.8586728096467395
2021-08-06,1.8549977460660345
2021-08-09,1.8539814959267227
2021-08-10,1.8527278815300254
2021-08-11,1.846469962804535
2021-08-12,1.8478673047733563
2021-08-13,1.843956602650819
2021-08-16,1.8482323345091356
2021-08-17,1.839276900978241
2021-08-18,1.847927434163824
2021-08-19,1.836816088555622
2021-08-20,1.8341933845015086
2021-08-23,1.8349478178226928
2021-08-24,1.8353088675011116
2021-08-25,1.8370715900122963
2021-08-26,1.8346163612829123
2021-08-27,1.8395323976488072
2021-08-30,1.843648510305211
2021-08-31,1.8565564862246162
2021-09-01,1.857675158480893
2021-09-02,1.8660794514611188
2021-09-03,1.8606597789952735
2021-09-06,1.8663709739756136
2021-09-07,1.8749739263801097
2021-09-08,1.8729943979241834
2021-09-09,1.885351638146401
2021-09-10,1.8889061929714848
2021-09-13,1.8943443217324516
2021-09-14,1.872233770067668
2021-09-15,1.8628905692904953
2021-09-16,1.8571297795891635
2021-09-17,1.8569228373137407
2021-09-22,1.8634846799774714
2021-09-23,1.8598595995450105
2021-09-24,1.8564867748762555
2021-09-27,1.8611625799708658
2021-09-28,1.8639570227777955
2021-09-29,1.8625090395555643
2021-09-30,1.866302117261529
2021-10-08,1.8803492930429446
2021-10-11,1.8799411393036973
2021-10-12,1.8761625328827243
2021-10-13,1.8841018378327088
2021-10-14,1.8785940839316027
2021-10-15,1.8798922506451994
2021-10-18,1.8556447813538925
2021-10-19,1.8591647018273982
2021-10-20,1.8583760435262298
2021-10-21,1.8580797372443252
2021-10-22,1.8649383924007061
2021-10-25,1.8665397682002498
2021-10-26,1.8626308232861888
2021-10-27,1.8547592431713689
2021-10-28,1.857070592431702
2021-10-29,1.8719964222446228
2021-11-01,1.870949293455604
2021-11-02,1.8653018230341918
2021-11-03,1.8535162988340024
2021-11-04,1.8600069277440898
2021-11-05,1.8570151358882203
2021-11-08,1.8540273000424627
2021-11-09,1.8491737079510995
2021-11-10,1.8397766350500724
2021-11-11,1.84573815487004
2021-11-12,1.8432412780641627
2021-11-15,1.8364281409897565
2021-11-16,1.8320680500588173
2021-11-17,1.829161569843027
2021-11-18,1.8216584845448458
2021-11-19,1.8297257419097481
2021-11-22,1.8241128013868295
2021-11-23,1.822408536836652
2021-11-24,1.8205146578948948
2021-11-25,1.8167963424122693
2021-11-26,1.810760791892438
2021-11-29,1.8111004453819992
2021-11-30,1.8076753731590363
2021-12-01,1.8082924496369144
2021-12-02,1.8106331723756524
2021-12-03,1.8217000327653017
2021-12-06,1.8167244147473498
2021-12-07,1.8163984516767515
2021-12-08,1.8225889095080936
2021-12-09,1.8347159786576144
2021-12-10,1.8255088390069836
2021-12-13,1.8356250277810526
2021-12-14,1.821965305740538
2021-12-15,1.8138867478262124
2021-12-16,1.8237827549143146
2021-12-17,1.8051541665442064
2021-12-20,1.800551685758356
2021-12-21,1.8111172931951338
2021-12-22,1.808537153100564
2021-12-23,1.8163764716526267
2021-12-24,1.818502167124604
2021-12-27,1.8165348104142485
2021-12-28,1.8160747590650514
2021-12-29,1.8052998664263404
2021-12-30,1.8081223429510638
2021-12-31,1.8118938799190278
2022-01-04,1.8225532066777903
2022-01-05,1.8205275772968517
2022-01-06,1.8115537019301156
2022-01-07,1.8283021668061261
2022-01-10,1.835126697961437
2022-01-11,1.8275094915591945
2022-01-12,1.8217363005117955
2022-01-13,1.810995660098007
2022-01-14,1.7932373590240804
2022-01-17,1.791851597028663
2022-01-18,1.802826240310694
2022-01-19,1.8059115283492837
2022-01-20,1.8143343285402225
2022-01-21,1.8093225216124653
2022-01-24,1.8056287995369509
2022-01-25,1.7918378647428306
2022-01-26,1.793754837959013
2022-01-27,1.7850897486208586
2022-01-28,1.7745353452463986
2022-02-07,1.7928841386497667
2022-02-08,1.8012882783576216
2022-02-09,1.8041911666441077
2022-02-10,1.8124009195828878
2022-02-11,1.8188604248561562
2022-02-14,1.8030873699314522
2022-02-15,1.7930601420091987
2022-02-16,1.79748806014038
2022-02-17,1.7985782336449687
2022-02-18,1.8089119739879704
2022-02-21,1.8045961390963714
2022-02-22,1.7963667435470632
2022-02-23,1.7853019054847057
2022-02-24,1.7786615714769702
2022-02-25,1.7753509990702903
2022-02-28,1.7779144062402403
2022-03-01,1.7822283745348648
2022-03-02,1.7848422545177232
2022-03-03,1.7849570815880358
2022-03-04,1.7827414479687271
2022-03-07,1.7805713327059334
2022-03-08,1.7718509235047413
2022-03-09,1.7716645690321373
2022-03-10,1.7729160701076205
2022-03-11,1.7734403254255053
2022-03-14,1.767791281034046
2022-03-15,1.7552400532559223
2022-03-16,1.7609063268102194
2022-03-17,1.7617031228424351
2022-03-18,1.7619434885656855
2022-03-21,1.7663240825253241
2022-03-22,1.7643747633263624
2022-03-23,1.7618644422632372
2022-03-24,1.7596771649339715
2022-03-25,1.7560315633077643
2022-03-28,1.756213429334909
2022-03-29,1.7587747558275078
2022-03-30,1.760339614473725
2022-03-31,1.7603306567975174
2022-04-01,1.7623563643871716
2022-04-06,1.7673300711053357
2022-04-07,1.7593898787800897
2022-04-08,1.7669947582247483
2022-04-11,1.7530891483640314
2022-04-12,1.7537923058958202
2022-04-13,1.7549948407110187
2022-04-14,1.7655057302449195
2022-04-15,1.763447703529781
2022-04-18,1.7431748706643053
2022-04-19,1.7378300165315221
2022-04-20,1.7267413495757524
2022-04-21,1.7205359722053204
2022-04-22,1.7226828347638503
2022-04-25,1.7029624176525575
2022-04-26,1.7048206801915187
2022-04-27,1.7083730203605982
2022-04-28,1.7079474908605983
2022-04-29,1.718476439806454
2022-05-05,1.7140224913147226
2022-05-06,1.6989471765348023
2022-05-09,1.6931957577968217
2022-05-10,1.698950295241905
2022-05-11,1.7013404742672167
2022-05-12,1.7017026844967906
2022-05-13,1.7082090028690957
2022-05-16,1.7037301988004605
2022-05-17,1.7106280713289455
2022-05-18,1.7097788139932006
2022-05-19,1.7162463463951354
2022-05-20,1.7225437194977657
2022-05-23,1.7178491755533596
2022-05-24,1.7066773774020252
2022-05-25,1.7111245667961366
2022-05-26,1.7116990475644362
2022-05-27,1.7125183005902356
2022-05-30,1.7137972066352758
2022-05-31,1.7246150227353494
2022-06-01,1.7211825107089287
2022-06-02,1.72686598732604
2022-06-06,1.7482263253708208
2022-06-07,1.7497661654560062
2022-06-08,1.7663687632154077
2022-06-09,1.748217488968537
2022-06-10,1.7675951912983578
2022-06-13,1.7464660298021852
2022-06-14,1.7596759209145227
2022-06-15,1.7720160634369841
2022-06-16,1.760961428945671
2022-06-17,1.7743495697614171
2022-06-20,1.7810350836047637
2022-06-21,1.7842335531316318
2022-06-22,1.7656139599886587
2022-06-23,1.7864974167229901
2022-06-24,1.8061577013996493
2022-06-27,1.8278513998470198
2022-06-28,1.8437054127603318
2022-06-29,1.820699152151258
2022-06-30,1.8493813798991963
2022-07-01,1.841282517665518
2022-07-04,1.859007843661077
2022-07-05,1.8533210728337968
2022-07-06,1.8226509758775937
2022-07-07,1.8175263168431783
2022-07-08,1.823034678857149
2022-07-11,1.8128267977685841
2022-07-12,1.8127346477411341
2022-07-13,1.8116137360803566
2022-07-14,1.8122317881217886
2022-07-15,1.7965172569616379
2022-07-18,1.7995580635334585
2022-07-19,1.7977937576705088
2022-07-20,1.7959594132603542
2022-07-21,1.7959304094122377
2022-07-22,1.7960861510484263
2022-07-25,1.7967391737855136
2022-07-26,1.792239558966857
2022-07-27,1.7906459085734387
2022-07-28,1.7888940141684893
2022-07-29,1.7880390177777923
2022-08-01,1.7865661336209429
2022-08-02,1.7850698578437227
2022-08-03,1.7823069502038331
2022-08-04,1.7844834570715977
2022-08-05,1.784364750260592
2022-08-08,1.7856266024364795
2022-08-09,1.7854381280602358
2022-08-10,1.7836588825905504
2022-08-11,1.7885134517329007
2022-08-12,1.7870977087063031
2022-08-15,1.7803992444419565
2022-08-16,1.7788227451605125
2022-08-17,1.7833041534250464
2022-08-18,1.7771299846929431
2022-08-19,1.7756234582776986
2022-08-22,1.7824428838188673
2022-08-23,1.7806919533169643
2022-08-24,1.7725646366409558
2022-08-25,1.783270012252517
2022-08-26,1.7793326113897217
2022-08-29,1.7767990979614994
2022-08-30,1.7732180601495786
2022-08-31,1.7752788963567678
2022-09-01,1.7730574611407477
2022-09-02,1.7679513352980991
2022-09-05,1.7745261869484739
2022-09-06,1.7778433777431712
2022-09-07,1.7733160350237118
2022-09-08,1.7752236653539863
2022-09-09,1.7932414429600831
2022-09-13,1.7956662730633748
2022-09-14,1.7878675590860258
2022-09-15,1.7935320910192554
2022-09-16,1.766186187453301
2022-09-19,1.7723707709519023
2022-09-20,1.763251036370284
2022-09-21,1.7575565381165417
2022-09-22,1.7541267361637132
2022-09-23,1.7533344101635557
2022-09-26,1.749324150104599
2022-09-27,1.752803570526827
2022-09-28,1.750634353646276
2022-09-29,1.7474984204826
2022-09-30,1.7469657901095967
2022-10-10,1.7364613113607543
2022-10-11,1.7359109135499302
2022-10-12,1.7351845432978832
2022-10-13,1.7345907042084612
2022-10-14,1.7366080067999252
2022-10-17,1.738206454599522
2022-10-18,1.7378812846429195
2022-10-19,1.7350238749418803
2022-10-20,1.7362486214038129
2022-10-21,1.7377306095847402
2022-10-24,1.7321696554592292
2022-10-25,1.7282284692464125
2022-10-26,1.732255967025718
2022-10-27,1.7321811111279315
2022-10-28,1.7292975400315773
2022-10-31,1.7339756598585798
2022-11-01,1.7369488131224853
2022-11-02,1.7405204985405727
2022-11-03,1.7376027876450435
2022-11-04,1.7450813780754213
2022-11-07,1.7484642400023265
2022-11-08,1.7440422738738686
2022-11-09,1.7402777375151903
2022-11-10,1.7333675631230805
2022-11-11,1.7444476423970259
2022-11-14,1.7449200461416359
2022-11-15,1.7614716812978468
2022-11-16,1.7522030442778638
2022-11-17,1.7466296881082377
2022-11-18,1.7408511442601895
2022-11-21,1.7305200613880451
2022-11-22,1.7363252169062866
2022-11-23,1.7340333726917259
2022-11-24,1.7301755536513526
2022-11-25,1.7430971864928175
2022-11-28,1.7210997086603441
2022-11-29,1.7527023144337137
2022-11-30,1.7489339789365574
2022-12-01,1.755213878947846
2022-12-02,1.7424325086287848
2022-12-05,1.778811920024607
2022-12-06,1.7813692764571922
2022-12-07,1.7712672677975574
2022-12-08,1.771952280822943
2022-12-09,1.8022719823685633
2022-12-12,1.7781049756958487
2022-12-13,1.781473307078799
2022-12-14,1.7953325741404473
2022-12-15,1.782725542972063
2022-12-16,1.7919449182468952
2022-12-19,1.771272069836565
2022-12-20,1.745781985922744
2022-12-21,1.7493886490550192
2022-12-22,1.7524373978587358
2022-12-23,1.7533198881494476
2022-12-26,1.7476601286919091
2022-12-27,1.7522360873544751
2022-12-28,1.7503744296981625
2022-12-29,1.7470909980720262
2022-12-30,1.7481506757969436
2023-01-03,1.7467675546006258
2023-01-04,1.7491392281622402
2023-01-05,1.7533571437986717
2023-01-06,1.7523858877770158
2023-01-09,1.7563772434307598
2023-01-10,1.754329647254045
2023-01-11,1.7564870865040845
2023-01-12,1.7551624873144593
2023-01-13,1.777898155101011
2023-01-16,1.7965852468074586
2023-01-17,1.7907598566459833
2023-01-18,1.7823590515859338
2023-01-19,1.7929710543973525
2023-01-20,1.7965900870908136
2023-01-30,1.7948137538399285
2023-01-31,1.7804845186118572
2023-02-01,1.7968346575278238
2023-02-02,1.7868183985462778
2023-02-03,1.7718043097908434
2023-02-06,1.75701485845539
2023-02-07,1.757638526264557
2023-02-08,1.7548457395551345
2023-02-09,1.7604169976836908
2023-02-10,1.7545578775099402
2023-02-13,1.7581336041686557
2023-02-14,1.7605089112423356
2023-02-15,1.7582972876764869
2023-02-16,1.7567969432558133
2023-02-17,1.753937230840447
2023-02-20,1.7673936758069586
2023-02-21,1.7701186911133577
2023-02-22,1.7678326112054825
2023-02-23,1.7687205765120042
2023-02-24,1.7610909318965207
2023-02-27,1.7576241198091127
2023-02-28,1.7613931312448878
2023-03-01,1.7722849915627195
2023-03-02,1.7754803180895227
2023-03-03,1.7833262100281142
2023-03-06,1.7737246890641363
2023-03-07,1.7692662476223366
2023-03-08,1.7672925961165011
2023-03-09,1.7657753934488216
2023-03-10,1.7578704638910292
2023-03-13,1.772659163788265
2023-03-14,1.7687178412814
2023-03-15,1.772687300717544
2023-03-16,1.7654400334003877
2023-03-17,1.7739277177446888
2023-03-20,1.7720114995025258
2023-03-21,1.7704303514967599
2023-03-22,1.7735459069268609
2023-03-23,1.7771099700169137
2023-03-24,1.7716549200231393
2023-03-27,1.7613906265049175
2023-03-28,1.7577286514417236
2023-03-29,1.7601855421904684
2023-03-30,1.7601415480685179
2023-03-31,1.7613433046029752
2023-04-03,1.7598164435515022
2023-04-04,1.7682180356270716
2023-04-06,1.7716454611794394
2023-04-07,1.778260997657779
2023-04-10,1.7810394437972497
2023-04-11,1.7862379381656788
2023-04-12,1.7937030375266383
2023-04-13,1.7816624230909102
2023-04-14,1.7868006275120356
2023-04-17,1.7980862349852318
2023-04-18,1.800422399365527
2023-04-19,1.78910476804386
2023-04-20,1.787145489172597
2023-04-21,1.7686024664023254
2023-04-24,1.7631619933332452
2023-04-25,1.7620798245140925
2023-04-26,1.7572621755592268
2023-04-27,1.7644660197263276
2023-04-28,1.7645591202374125
2023-05-04,1.763551997798348
2023-05-05,1.7571208899249586
2023-05-08,1.7755893238455274
2023-05-09,1.7698687670707822
2023-05-10,1.7592435737829155
2023-05-11,1.7586407061546305
2023-05-12,1.7535551544372532
2023-05-15,1.760062430682436
2023-05-16,1.7590197124864049
2023-05-17,1.7552565080710618
2023-05-18,1.7562855931768784
2023-05-19,1.7508226472086899
2023-05-22,1.753502734623639
2023-05-23,1.7484520958671284
2023-05-24,1.7450148919661879
2023-05-25,1.7427993442268057
2023-05-26,1.7418475543657632
2023-05-29,1.7417163850089026
2023-05-30,1.7410242574532624
2023-05-31,1.7398191410220536
2023-06-01,1.7395923614165998
2023-06-02,1.7396913371121052
2023-06-05,1.7385730612972565
2023-06-06,1.7336533151923672
2023-06-07,1.7336084579082551
2023-06-08,1.7351648783339733
2023-06-09,1.7347585604051512
2023-06-12,1.7354466910127355
2023-06-13,1.734373050572274
2023-06-14,1.7366354511993336
2023-06-15,1.7425471632129956
2023-06-16,1.7466155446409726
2023-06-19,1.7372634336462325
2023-06-20,1.7391151863620855
2023-06-21,1.7326925363909487
2023-06-26,1.728268327624678
2023-06-27,1.7350994601327758
2023-06-28,1.7340356105799033
2023-06-29,1.7300020998870203
2023-06-30,1.7325475975288882
2023-07-03,1.7383859553628898
2023-07-04,1.7415306226496514
2023-07-05,1.7393289103825145
2023-07-06,1.7350226123292094
2023-07-07,1.733351722673938
2023-07-10,1.7330694359073684
2023-07-11,1.7382546608039893
2023-07-12,1.7354930505751887
2023-07-13,1.7433340983274563
2023-07-14,1.7413488644092425
2023-07-17,1.7321602148520934
2023-07-18,1.7316504459536564
2023-07-19,1.7315123720875036
2023-07-20,1.7256912463633505
2023-07-21,1.7262346632886822
2023-07-24,1.7204517192489557
2023-07-25,1.7393549223871587
2023-07-26,1.7388196620425551
2023-07-27,1.7389889455092928
2023-07-28,1.7776544649292516
2023-07-31,1.7896260982455336
2023-08-01,1.7758799384670045
2023-08-02,1.7677978813752648
2023-08-03,1.7811400652281657
2023-08-04,1.784542035584751
2023-08-07,1.7732859669528411
2023-08-08,1.764527238274089
2023-08-09,1.7625650410115214
2023-08-10,1.7641200481171502
2023-08-11,1.7332136936990323
2023-08-14,1.7283747790213062
2023-08-15,1.72580947552116
2023-08-16,1.7261642357327316
2023-08-17,1.7266329787259855
2023-08-18,1.7262336096078426
2023-08-21,1.7226752212919128
2023-08-22,1.7229969851535345
2023-08-23,1.7221856044034964
2023-08-24,1.7217600211288902
2023-08-25,1.7226888104466422
2023-08-28,1.7225498990508064
2023-08-29,1.721866520157263
2023-08-30,1.7223094883284007
2023-08-31,1.719831654857474
2023-09-01,1.7227156542531326
2023-09-04,1.7275400249175226
2023-09-05,1.7236382420352523
2023-09-06,1.7220836416426566
2023-09-07,1.719747584931723
2023-09-08,1.7161175711705965
2023-09-11,1.7169853014813363
2023-09-12,1.7167689043036118
2023-09-13,1.7156011276542351
2023-09-14,1.7183334152226586
2023-09-15,1.7164598858040039
2023-09-18,1.7182834203689754
2023-09-19,1.7182688647201918
2023-09-20,1.7166110313346417
2023-09-21,1.7123866832130004
2023-09-22,1.714265589573697
2023-09-25,1.7130218247244529
2023-09-26,1.710964629885489
2023-09-27,1.7094426493255486
2023-09-28,1.7091816473952766
2023-10-09,1.710536536997092
2023-10-10,1.7093592416323755
2023-10-11,1.712732351480417
2023-10-12,1.7152438053006804
2023-10-13,1.7157375381389266
2023-10-16,1.7136255566228669
2023-10-17,1.7158217263770235
2023-10-18,1.7160369396259807
2023-10-19,1.7084267369150206
2023-10-20,1.7055389764055537
2023-10-23,1.70838442474816
2023-10-24,1.7067498809505086
2023-10-25,1.7072543236533047
2023-10-26,1.70642346465145
2023-10-27,1.7090411511944843
2023-10-30,1.7178067868373486
2023-10-31,1.7167087386640192
2023-11-01,1.7147290367606105
2023-11-02,1.7113684690759816
2023-11-03,1.7137019133973799
2023-11-06,1.7191781631861696
2023-11-07,1.7152331359438955
2023-11-08,1.7143932319041002
2023-11-09,1.7109585384594477
2023-11-10,1.708793786098334
2023-11-13,1.703871833946267
2023-11-14,1.7026856339981733
2023-11-15,1.7053647799965377
2023-11-16,1.700111484822803
2023-11-17,1.6985831516815126
2023-11-20,1.6966330891862123
2023-11-21,1.6970403510184418
2023-11-22,1.6959317047152653
2023-11-23,1.6957875588047338
2023-11-24,1.6966252471948675
2023-11-27,1.6965269520930768
2023-11-28,1.6969861269176272
2023-11-29,1.6974692822068564
2023-11-30,1.6997984269357815
2023-12-01,1.6981957174072784
2023-12-04,1.7002755874336835
2023-12-05,1.6947876280572844
2023-12-06,1.694872540433505
2023-12-07,1.6937792351659078
2023-12-08,1.6950698191530444
2023-12-11,1.6965733875245244
2023-12-12,1.696559222654481
2023-12-13,1.6954556875866604
2023-12-14,1.6947463341628315
2023-12-15,1.6937515807766097
2023-12-18,1.6949014593928204
2023-12-19,1.694279733087903
2023-12-20,1.6902353757132453
2023-12-21,1.689778014067363
2023-12-22,1.6891921314843223
2023-12-25,1.6901842356683412
2023-12-26,1.6898056982546925
2023-12-27,1.6911384502054816
2023-12-28,1.6901748736166124
2023-12-29,1.6997348189032495
2024-01-02,1.6938536459881834
2024-01-03,1.6940363248351782
2024-01-04,1.6927826635165304
2024-01-05,1.690027840551288
2024-01-08,1.6828226925411545
2024-01-09,1.6869428994366884
2024-01-10,1.6851765083563326
2024-01-11,1.6834414055350568
2024-01-12,1.6850899088107478
2024-01-15,1.6880200069020617
2024-01-16,1.6932206586648388
2024-01-17,1.682687761442136
2024-01-18,1.6898368373797248
2024-01-19,1.6874230000134385
2024-01-22,1.6843522191221258
2024-01-23,1.6835734324230296
2024-01-24,1.6882383748281098
2024-01-25,1.6979871499630297
2024-01-26,1.7033841552505118
2024-01-29,1.706650394589755
2024-01-30,1.6975573767624623
2024-01-31,1.6972283474100478
2024-02-01,1.6914131177951042
2024-02-02,1.69147783851179
2024-02-05,1.7032482254282584
2024-02-06,1.7164503677487728
2024-02-07,1.7276481523727774
2024-02-08,1.7304156808576883
2024-02-19,1.7397691383329854
2024-02-20,1.7459545676638841
2024-02-21,1.7657544351880434
2024-02-22,1.7722052812591278
2024-02-23,1.7698200114221978
2024-02-26,1.7503080993552371
2024-02-27,1.7573009856046793
2024-02-28,1.7415166178333414
2024-02-29,1.7616597395232954
2024-03-01,1.7663116033310664
2024-03-04,1.7660948579193771
2024-03-05,1.7818180465730027
2024-03-06,1.773949272910671
2024-03-07,1.7704904245456061
2024-03-08,1.768751591139354
2024-03-11,1.7808374658200923
2024-03-12,1.775916503102231
2024-03-13,1.7679170364141155
2024-03-14,1.7711952781408495
2024-03-15,1.769369679588911
2024-03-18,1.779511459041404
2024-03-19,1.7750205050808157
2024-03-20,1.7742495405041714
2024-03-21,1.774204030410146
2024-03-22,1.7659827954295473
2024-03-25,1.760724393683501
2024-03-26,1.765248052253535
2024-03-27,1.7571743335306886
2024-03-28,1.758206110753681
2024-03-29,1.761763285608758
2024-04-01,1.7722279773824035
2024-04-02,1.7683553712704374
2024-04-03,1.7705081616992706
2024-04-08,1.7648095757635107
2024-04-09,1.759612805655378
2024-04-10,1.7636168783940127
2024-04-11,1.7664450061588104
2024-04-12,1.7627346678209448
2024-04-15,1.7799728620533228
2024-04-16,1.7816924143384658
2024-04-17,1.7885100140232946
2024-04-18,1.7899262487305034
2024-04-19,1.79200780237556
2024-04-22,1.7799086689818262
2024-04-23,1.7697973773946796
2024-04-24,1.7698280793106016
2024-04-25,1.7779796838918822
2024-04-26,1.7809470758773687
2024-04-29,1.7855792771180519
2024-04-30,1.7871922022287787
2024-05-06,1.8103048626340186
2024-05-07,1.8099566150923896
2024-05-08,1.796964013495441
2024-05-09,1.810368010039737
2024-05-10,1.8141287258207384
2024-05-13,1.814002240618995
2024-05-14,1.8137557192938147
2024-05-15,1.8050824420817533
2024-05-16,1.815626360071621
2024-05-17,1.8322796338883298
2024-05-20,1.83154906243335
2024-05-21,1.8277918798976174
2024-05-22,1.8278954264964427
2024-05-23,1.814949632265675
2024-05-24,1.7989376342093084
2024-05-27,1.802749637803423
2024-05-28,1.7968482493059181
2024-05-29,1.8010330034377504
2024-05-30,1.7980394824361159
2024-05-31,1.7911770312578923
2024-06-03,1.7950620575993392
2024-06-04,1.79609690631631
2024-06-05,1.796267155104052
2024-06-06,1.7963365740958057
2024-06-07,1.793833634858976
2024-06-11,1.7928084072536956
2024-06-12,1.7948324585682667
2024-06-13,1.7963746188805363
2024-06-14,1.7963600692896082
2024-06-17,1.8005507364068793
2024-06-18,1.8017237262877464
2024-06-19,1.8011831395717297
2024-06-20,1.801633779090856
2024-06-21,1.8016748791333628
2024-06-24,1.8014838352383895
2024-06-25,1.799561355112754
2024-06-26,1.8011567141130194
2024-06-27,1.8011029393553117
2024-06-28,1.806158733488769
2024-07-01,1.8103568028829369
2024-07-02,1.8108781210962095
2024-07-03,1.808220531790441
2024-07-04,1.8100285958009674
2024-07-05,1.8062266577966395
2024-07-08,1.809507473973992
2024-07-09,1.815701405546287
2024-07-10,1.8097408948245157
2024-07-11,1.8145012556873348
2024-07-12,1.81590843790661
2024-07-15,1.8194529719770909
2024-07-16,1.8236523540815248
2024-07-17,1.8240437522829538
2024-07-18,1.8247347778846381
2024-07-19,1.828293440725596
2024-07-22,1.8191651197624419
2024-07-23,1.7959221735888133
2024-07-24,1.7890068175392142
2024-07-25,1.7894429571162527
2024-07-26,1.785509435254314
2024-07-29,1.777120231368872
2024-07-30,1.7739407943757624
2024-07-31,1.7788863396954062
2024-08-01,1.780583534171254
2024-08-02,1.776802638527372
2024-08-05,1.7729828384321618
2024-08-06,1.7716318940795193
2024-08-07,1.76980333442035
2024-08-08,1.7692610240852535
2024-08-09,1.7655345229511674
2024-08-12,1.768132691272138
2024-08-13,1.767395664292913
2024-08-14,1.7670971750812023
2024-08-15,1.770737653247473
2024-08-16,1.7696533428368513
2024-08-19,1.7688882081248558
2024-08-20,1.7675972799274116
2024-08-21,1.7661342964919278
2024-08-22,1.766855115048402
2024-08-23,1.7720797588577324
2024-08-26,1.770500210491215
2024-08-27,1.77004896476999
2024-08-28,1.7648331783924662
2024-08-29,1.756813663179363
2024-08-30,1.7563286985247106
2024-09-02,1.7454773333047484
2024-09-03,1.749904078593276
2024-09-04,1.7475170803782685
2024-09-05,1.7479040994453823
2024-09-06,1.7411400926699123
2024-09-09,1.7324835417569544
2024-09-10,1.731114402577302
2024-09-11,1.7384844526316683
2024-09-12,1.736232276189214
2024-09-13,1.7339470407602893
2024-09-18,1.738934223930274
2024-09-19,1.7410532469592521
2024-09-20,1.7396356610797734
2024-09-23,1.7400959313446882
2024-09-24,1.7519240216287102
2024-09-25,1.7670937916552163
2024-09-26,1.819390302590604
2024-09-27,1.9026512280029118
2024-09-30,2.0441567985051377
2024-10-08,2.1271745589227975
2024-10-09,1.985767369202564
2024-10-10,2.0137980453189748
2024-10-11,1.9795720106280446
2024-10-14,2.0062958535202022
2024-10-15,1.9693949952597452
2024-10-16,1.958631296962496
2024-10-17,1.9302580358272834
2024-10-18,1.967674870814182
2024-10-21,1.972582470271383
2024-10-22,1.9863765430711087
2024-10-23,1.9950389429054045
2024-10-24,1.9773181795892143
2024-10-25,1.9871726794664815
2024-10-28,1.9923236908420483
2024-10-29,1.9807562701000838
2024-10-30,1.9754247991925056
2024-10-31,1.9802786746838537
2024-11-01,1.9810314648775853
2024-11-04,1.9913082399216298
2024-11-05,2.0099727755315957
2024-11-06,2.0058624652271684
2024-11-07,2.0369907086121315
2024-11-08,2.019895863289075
2024-11-11,2.016893331136068
2024-11-12,2.008019429306692
2024-11-13,2.0076826534753054
2024-11-14,1.9899411288374156
2024-11-15,1.9731050370106393
2024-11-18,1.9630243074528049
2024-11-19,1.9625655967114954
2024-11-20,1.9623202100768993
2024-11-21,1.9627517800334568
2024-11-22,1.9539364721485533
2024-11-25,1.9543772346676855
2024-11-26,1.9539381555344002
2024-11-27,1.9543089196511156
2024-11-28,1.9541652667853229
2024-11-29,1.953404558078885
2024-12-02,1.952545642005957
2024-12-03,1.9527405303920033
2024-12-04,1.9550053791294193
2024-12-05,1.9532412312810665
2024-12-06,1.9549092103895862
2024-12-09,1.9558751007975028
2024-12-10,1.9547397261962387
2024-12-11,1.9550567395804115
2024-12-12,1.9576398456462831
2024-12-13,1.9421883830882753
2024-12-16,1.944845659492001
2024-12-17,1.945489175009026
2024-12-18,1.9484135897311181
2024-12-19,1.9456654489708072
2024-12-20,1.9394152149187667
2024-12-23,1.9449264652813347
2024-12-24,1.9540999070686789
2024-12-25,1.954558435739973
2024-12-26,1.9572233049850745
2024-12-27,1.9560858762943274
2024-12-30,1.9591246232978634
2024-12-31,1.9537954508901438
2025-01-02,1.9407217864386415
2025-01-03,1.9374329165285433
2025-01-06,1.9391238338630747
2025-01-07,1.9388816209714113
2025-01-08,1.943906148104188
2025-01-09,1.9441674714443364
2025-01-10,1.9406636390875518
2025-01-13,1.935783178989821
2025-01-14,1.9379813328081723
2025-01-15,1.9376957739143132
2025-01-16,1.9405163728072181
2025-01-17,1.9395871230060926
2025-01-20,1.938281940456378
2025-01-21,1.9381593398339991
2025-01-22,1.9355405624746214
2025-01-23,1.9361304472943002
2025-01-24,1.9378775820095726
2025-01-27,1.939500138814238
2025-02-05,1.9376908857900599
2025-02-06,1.939068339005058
2025-02-07,1.9435182649745597
2025-02-10,1.9459317283420914
2025-02-11,1.944105780293835
2025-02-12,1.9594988733394136
2025-02-13,1.9587497129702418
2025-02-14,1.97094050049064
2025-02-17,1.9685018899527706
2025-02-18,1.960404027547459
2025-02-19,1.9739357025876108
2025-02-20,1.9712107164616193
2025-02-21,1.9856229880971479
2025-02-24,1.9818186766843857
2025-02-25,1.9663707795015615
2025-02-26,1.9760120133498391
2025-02-27,1.9829866966160834
2025-02-28,1.9600090571916122
2025-03-03,1.9589400069561715
2025-03-04,1.9556309248802937
2025-03-05,1.9593535097693353
2025-03-06,1.9670266773045626
2025-03-07,1.9680587979915989
2025-03-10,1.9640312920227345
2025-03-11,1.9703390651933166
2025-03-12,1.963242547545356
2025-03-13,1.9632278281189874
2025-03-14,1.9883329424940468
2025-03-17,1.990001015480837
2025-03-18,1.9880910775680853
2025-03-19,1.9938363987577261
2025-03-20,1.9799671784453412
2025-03-21,1.9635480486548265
2025-03-24,1.9700038278227823
2025-03-25,1.9689334512945564
2025-03-26,1.967764975259695
2025-03-27,1.969592681583176
2025-03-28,1.9650389901152723
2025-03-31,1.9614350589528118
2025-04-01,1.9594055860422213
2025-04-02,1.957122948645904
2025-04-03,1.9590977790380069
2025-04-07,1.9431109737430767
2025-04-08,1.9513844095246315
2025-04-09,1.953002274361442
2025-04-10,1.9541391812015056
2025-04-11,1.9474930435437974
2025-04-14,1.9473161366691898
2025-04-15,1.944695679670547
2025-04-16,1.9511784979112106
2025-04-17,1.9515219577419125
2025-04-18,1.948416932858564
2025-04-21,1.9429653287202773
2025-04-22,1.9424240176188332
2025-04-23,1.935905262782832
2025-04-24,1.9388204108850489
2025-04-25,1.9356638202281777
2025-04-28,1.9335316188764549
2025-04-29,1.932669553355308
2025-04-30,1.9292196216686581
2025-05-06,1.9284084179606884
2025-05-07,1.9282290811967233
2025-05-08,1.9287557222310294
2025-05-09,1.9312609676685266
2025-05-12,1.9432772200390835
2025-05-13,1.94595858551491
2025-05-14,1.9574479481049427
2025-05-15,1.945861945831886
2025-05-16,1.9368610292942663
2025-05-19,1.9313142093839377
2025-05-20,1.941787422716962
2025-05-21,1.9483965444250928
2025-05-22,1.9501154015240634
2025-05-23,1.9377290699246168
2025-05-26,1.9267323321354786
2025-05-27,1.9189477670720851
2025-05-28,1.923713349752485
2025-05-29,1.9204432008648324
2025-05-30,1.917350457246515
2025-06-03,1.9219646121907044
2025-06-04,1.9214582634119324
2025-06-05,1.9182239383064033
2025-06-06,1.9180531372566254
2025-06-09,1.9234324122173776
2025-06-10,1.9233799869693882
2025-06-11,1.9297591080251795
2025-06-12,1.9335349323739226
2025-06-13,1.9309596529291975
2025-06-16,1.93024228048942
2025-06-17,1.9287309187880224
2025-06-18,1.9262637698616258
2025-06-19,1.9202161125940709
2025-06-20,1.9226417486584764
2025-06-23,1.9241798658417981
2025-06-24,1.9279274749008113
2025-06-25,1.9398975950299298
2025-06-26,1.9361587798140578
2025-06-27,1.9293826870513886
2025-06-30,1.9318629046837148
2025-07-01,1.931606431924921
2025-07-02,1.9411616677386303
2025-07-03,1.9484985368298866
2025-07-04,1.9534929451985983
2025-07-07,1.9483286719136697
2025-07-08,1.9633279215965553
2025-07-09,1.9592611261406057
2025-07-10,1.9700073348299412
2025-07-11,1.9695524505687434
2025-07-14,1.9717619924379584
2025-07-15,1.967162328027878
2025-07-16,1.9662049838587026
2025-07-17,1.9751602117074658
2025-07-18,1.9818406974438976
2025-07-21,1.9940723270937881
2025-07-22,2.0224529590262548
2025-07-23,2.0149339488004996
2025-07-24,2.029125447154212
2025-07-25,2.006876128106171
2025-07-28,2.002536064164271
2025-07-29,2.003180411235255
2025-07-30,2.0080021293543737
2025-07-31,1.9700132680504672
2025-08-01,1.9632851706666878
2025-08-04,1.9613401404113133
2025-08-05,1.964588894524592
2025-08-06,1.9637962070386874
2025-08-07,1.962313287676028
2025-08-08,1.9618836235533035
2025-08-11,1.96340763771862
2025-08-12,1.9677266362578802
2025-08-13,1.9739439468812263
2025-08-14,1.9718857096607585
2025-08-15,1.9839244613704023
2025-08-18,1.9919985254322867
2025-08-19,1.982084610292167
2025-08-20,1.9909137822947212
2025-08-21,1.9963125845051022
2025-08-22,2.007773341574068
2025-08-25,2.0294199345013486
2025-08-26,2.041057866895139
2025-08-27,2.0095602367957164
2025-08-28,2.0173945790093493
2025-08-29,2.0259685408422055
2025-09-01,2.029539040068109
2025-09-02,2.020632874862887
2025-09-03,2.0079391041296817
2025-09-04,1.9949468017119067
2025-09-05,2.022730429813275
2025-09-08,2.0329268577425315
2025-09-09,2.0278744138557223
2025-09-10,2.019199781378731
2025-09-11,2.030973886509415
2025-09-12,2.023954125356292
2025-09-15,2.029035381354669
2025-09-16,2.026590867956085
2025-09-17,2.030826193877788
2025-09-18,2.019513586892177
2025-09-19,2.0219979375544535
2025-09-22,2.025150677935657
2025-09-23,2.0249776894189355
2025-09-24,2.033940782671016
2025-09-25,2.0398665449936186
2025-09-26,2.0336048205302517
2025-09-29,2.040995710500847
2025-09-30,2.0473521964522066
2025-10-09,2.0566020578165545
2025-10-10,2.0393408681293357
2025-10-13,2.0336536819162094
2025-10-14,2.0315260166549614
2025-10-15,2.0376700901861997
2025-10-16,2.040232139776275
2025-10-17,2.0310321789699217
2025-10-20,2.026972900929051
2025-10-21,2.0292512860190692
2025-10-22,2.0301265913865145
2025-10-23,2.033212649890431
2025-10-24,2.031124498759902
2025-10-27,2.035781998022978
2025-10-28,2.0292361397577574
2025-10-29,2.036938426721766
2025-10-30,2.0407660718609852
2025-10-31,2.0320078710904417
2025-11-03,2.036443888873806
2025-11-04,2.031679631878156
2025-11-05,2.033750925409502
2025-11-06,2.034389187460146
2025-11-07,2.041045109480281
2025-11-10,2.0555261893487415
2025-11-11,2.056342287872708
2025-11-12,2.0525670482095766
2025-11-13,2.0578182356047634
2025-11-14,2.052488074944707
2025-11-17,2.0441821671725573
2025-11-18,2.0392863968893393
2025-11-19,2.0432026179012293
2025-11-20,2.0364052896944993
2025-11-21,2.0307671740592856
2025-11-24,2.025321924530619
2025-11-25,2.026164187786854
2025-11-26,2.0253155697084764
2025-11-27,2.026109710243881
2025-11-28,2.0264859947846996
2025-12-01,2.027063870093194
2025-12-02,2.0297126005542503
2025-12-03,2.029563636601871
2025-12-04,2.0286401321308123
2025-12-05,2.0287163499972825
2025-12-08,2.028662551498988
2025-12-09,2.023831263487868
2025-12-10,2.0210270266042327
2025-12-11,2.0183215565437522
2025-12-12,2.0229565022433955
2025-12-15,2.021119845705486
2025-12-16,2.018755639336187
2025-12-17,2.0218911346967046
2025-12-18,2.020798221238634
2025-12-19,2.0237935658227206
2025-12-22,2.0247706355086383
2025-12-23,2.0227471202059033
2025-12-24,2.0233912529973535
2025-12-25,2.024245161479737
2025-12-26,2.0295541082736164
2025-12-29,2.0260208311812304
2025-12-30,2.0243731074284192
2025-12-31,2.0250151702367076
2026-01-05,2.028873174405635
2026-01-06,2.0463548535487126
2026-01-07,2.0356723799294154
2026-01-08,2.027227389227683
2026-01-09,2.0326809962977657
2026-01-12,2.0364279795757456
2026-01-13,2.0276909941560306
2026-01-14,2.0246077646805083
2026-01-15,2.0214380337659543
2026-01-16,2.0144992381225513
2026-01-19,2.010052041572654
2026-01-20,2.016984621817262
2026-01-21,2.0172060445408335
2026-01-22,2.016573007853788
2026-01-23,2.0138681687699775
2026-01-26,2.0096893478584614
2026-01-27,2.00720205093535
2026-01-28,2.010296463306845
2026-01-29,2.0166234161109227
2026-01-30,1.9997891347857764
2026-02-02,1.9930027399593058
2026-02-03,2.0002654117621543
2026-02-04,2.011545988623219
2026-02-05,2.0106086572258435
2026-02-06,2.005001314681732
2026-02-09,2.0087509260338856
2026-02-10,2.003273904677271
2026-02-11,2.0044555650011753
2026-02-12,1.998918178888377
2026-02-13,1.988092033326671
2026-02-24,1.9882223273246398
2026-02-25,1.9929149643027682
2026-02-26,1.982654123217125
2026-02-27,1.9822351421867304
2026-03-02,1.9904159850295393
2026-03-03,1.994036417150786
2026-03-04,1.9927570242244814
2026-03-05,1.9886003864278239
2026-03-06,1.991430915749967
2026-03-09,1.9952927704656633
2026-03-10,1.9890739798560038
2026-03-11,1.9964366186289288
2026-03-12,1.9993021796721693
2026-03-13,1.9976194138990977
2026-03-16,2.0012835947660106
2026-03-17,2.0000091273564844
2026-03-18,1.9972341317807687
2026-03-19,1.9980808640334629
2026-03-20,2.000753790793318
2026-03-23,1.9875737612942281
2026-03-24,1.9861981250102771
2026-03-25,1.9850779628796196
2026-03-26,1.9826641008993418
2026-03-27,1.9858081160673238
2026-03-30,1.9854467477616446
2026-03-31,1.984024543109495
2026-04-01,1.9836115253202609
2026-04-02,1.9824258965552402
2026-04-03,1.9751577870945818
2026-04-07,1.9732851526136226
2026-04-08,1.9759043677163595
2026-04-09,1.9753789105986046
2026-04-10,1.97747929106803
2026-04-13,1.9750971745058246
2026-04-14,1.9792764397384557
2026-04-15,1.9806041744950338
2026-04-16,1.9855432922499305
2026-04-17,1.9771293710420175
2026-04-20,1.9839270236894868
2026-04-21,1.9850831383273158
2026-04-22,1.9861697394101046
2026-04-23,1.9840446087597154
2026-04-24,1.980661056968373
2026-04-27,1.9835639345144496
2026-04-28,1.982541303174711
2026-04-29,1.9866845853989585
2026-04-30,1.9864465706225736
2026-05-06,1.9946464999007827
2026-05-07,1.992907543447753
2026-05-08,1.9896131409843136
2026-05-11,2.0038188850556793
2026-05-12,1.9989204295347374
2026-05-13,1.9979046270332226
2026-05-14,1.9824028361944357
2026-05-15,1.9797656378863013
2026-05-18,1.9726313344685849
2026-05-19,1.9731862279648889
2026-05-20,1.9708906659909167
2026-05-21,1.9698401399398102
2026-05-22,1.9698290601963488
2026-05-25,1.9717913863438241
2026-05-26,1.9704218098991495
2026-05-27,1.9698783574733554
2026-05-28,1.968365016002223
2026-05-29,1.9648438761593319
2026-06-01,1.9646579525799153
2026-06-02,1.9645878057045336
2026-06-03,1.9639451418359966
2026-06-04,1.9623219072307754
2026-06-05,1.963923637888759
2026-06-08,1.9669581055997674
2026-06-09,1.9650183796610448
2026-06-10,1.9674179808726864
2026-06-11,1.9677761029092684
2026-06-12,1.9682878691970491
2026-06-15,1.9637510583607207
2026-06-16,1.9605149416988912
2026-06-17,1.9589712969416404
2026-06-18,1.9496329677577384
2026-06-22,1.953549993227104
2026-06-23,1.9505556192079396
2026-06-24,1.952420628685473
2026-06-25,1.9568293744264535
2026-06-26,1.9476310873405507
2026-06-29,1.947378365494164
2026-06-30,1.9515874781553462
2026-07-01,1.9548542258498822
2026-07-02,1.9492323223741836
2026-07-03,1.9523833591698974
2026-07-06,1.9569355625824802
2026-07-07,1.9504253041162478
2026-07-08,1.9469138198810292
2026-07-09,1.9544516304594663
2026-07-10,1.9528645637021342
2026-07-13,1.9511663262099042
2026-07-14,1.9549499650766942
2026-07-15,1.9668998865012124
2026-07-16,1.9665856100760242
2026-07-17,1.9564730636814263
2026-07-20,1.982978235166984
2026-07-21,1.9693918616641042
2026-07-22,1.9856145868378423
2026-07-23,1.9825967299818932
2026-07-24,1.963793365791299
2026-07-27,1.964840067579109
2026-07-28,1.9827660643951075
2026-07-29,2.000720096845722
2026-07-30,2.036510986300042
2026-07-31,2.024890718166059
2026-08-03,2.017697425898202
2026-08-04,1.983889688218593
2026-08-05,1.9795532608620052
2026-08-06,1.969393001591415
2026-08-07,1.9710029344593551
2026-08-10,1.9797465621411043
2026-08-11,1.9655284003398632
2026-08-12,1.972434689611525
2026-08-13,1.9668690319156608
2026-08-14,1.9594186846423345
2026-08-17,1.9566010257030777
2026-08-18,1.956183013256542
2026-08-19,1.9514247724490235
2026-08-20,1.955724278622847
2026-08-21,1.9533877973750395
2026-08-24,1.9536129104960973
2026-08-25,1.953010785580555
2026-08-26,1.9534709158603694
2026-08-27,1.9538216214265367
2026-08-28,1.9572139704991924
2026-08-31,1.957925319079047
2026-09-01,1.9616836179030213
2026-09-02,1.9557968619705033
2026-09-03,1.9570868913188042
2026-09-04,1.9628360368455144
2026-09-07,1.952230256937043
2026-09-08,1.9519416744208202
2026-09-09,1.951804573132301
2026-09-10,1.9510069455114358
2026-09-11,1.9477408245480772
2026-09-14,1.9484021253247752
2026-09-15,1.9438799258042174
2026-09-16,1.9419226921833561
2026-09-17,1.9416611920837934
2026-09-18,1.9411702643227557
2026-09-21,1.9448256478358614
2026-09-22,1.94506615019817
2026-09-23,1.944464853879498
