date,equity
2018-10-16,1.0
2018-10-17,1.0
2018-10-18,1.0
2018-10-19,1.0
2018-10-22,1.0
2018-10-23,1.0
2018-10-24,1.0
2018-10-25,1.0
2018-10-26,1.0
2018-10-29,1.0
2018-10-30,1.0
2018-10-31,1.0
2018-11-01,1.0
2018-11-02,1.0
2018-11-05,1.0
2018-11-06,1.0
2018-11-07,1.0
2018-11-08,1.0
2018-11-09,1.0
2018-11-12,1.0
2018-11-13,0.999578947368421
2018-11-14,0.9978354981167884
2018-11-15,1.00229014820993
2018-11-16,1.005878008161091
2018-11-19,1.0094554191253373
2018-11-20,0.9970663891464214
2018-11-21,1.0025917967858733
2018-11-22,1.0012459904047581
2018-11-23,0.9912955373877796
2018-11-26,0.9920724931640967
2018-11-27,0.9943538183097695
2018-11-28,1.0000604132369084
2018-11-29,0.9987105108847758
2018-11-30,1.0004653443142952
2018-12-03,1.0088779796860547
2018-12-04,1.0086384060111049
2018-12-05,1.0141131385319486
2018-12-06,0.997159832383272
2018-12-07,0.9991579866504428
2018-12-10,0.9959117564266952
2018-12-11,0.9959924205098188
2018-12-12,0.9979350274928724
2018-12-13,1.0041232544921166
2018-12-14,0.9950618866300399
2018-12-17,0.9929370345105804
2018-12-18,0.9912017793000162
2018-12-19,0.9877405566755408
2018-12-20,0.9840501504627748
2018-12-21,0.9831492049961604
2018-12-24,0.9838563095873292
2018-12-25,0.9827741366627849
2018-12-26,0.9827726003724229
2018-12-27,0.9825181718779218
2018-12-28,0.9830502531414059
2019-01-02,0.9826933335394762
2019-01-03,0.9825072320944662
2019-01-04,0.9821340637148228
2019-01-07,0.9836150743511823
2019-01-08,0.9836461303292316
2019-01-09,0.9834824623631956
2019-01-10,0.9853864532987878
2019-01-11,0.9853357366569964
2019-01-14,0.983853118165033
2019-01-15,0.9921803406622892
2019-01-16,0.9904913191758771
2019-01-17,0.9885519447673703
2019-01-18,1.0032370256277574
2019-01-21,1.0057989105920029
2019-01-22,0.9954476240674145
2019-01-23,0.9987217159491907
2019-01-24,1.0054798193606413
2019-01-25,1.0118099508969043
2019-01-28,1.0132444579072923
2019-01-29,1.0180019784740106
2019-01-30,1.01314210806066
2019-01-31,1.0240831623557634
2019-02-01,1.0336700573453894
2019-02-11,1.0494551732213704
2019-02-12,1.0547655125055204
2019-02-13,1.0691699861379944
2019-02-14,1.0777219084634453
2019-02-15,1.0604357330612624
2019-02-18,1.092168229833618
2019-02-19,1.0893570831486312
2019-02-20,1.0977359644970535
2019-02-21,1.0999616769442324
2019-02-22,1.1207981158007039
2019-02-25,1.1646006802945634
2019-02-26,1.1527959126607652
2019-02-27,1.1404159189457275
2019-02-28,1.1483228721851961
2019-03-01,1.174407972058698
2019-03-04,1.1894337119898035
2019-03-05,1.1955495402462466
2019-03-06,1.1958482333276264
2019-03-07,1.1719356864505273
2019-03-08,1.1412639268083624
2019-03-11,1.1537174086644726
2019-03-12,1.1576654884145454
2019-03-13,1.146584728759113
2019-03-14,1.145523804978939
2019-03-15,1.1559885918326724
2019-03-18,1.1769926107715614
2019-03-19,1.1693485490863242
2019-03-20,1.1669019940503722
2019-03-21,1.1652262998451528
2019-03-22,1.1669903701485542
2019-03-25,1.1459195296650848
2019-03-26,1.1462169379155758
2019-03-27,1.1533689118969395
2019-03-28,1.1559859853758188
2019-03-29,1.1704990941328834
2019-04-01,1.1784608265025402
2019-04-02,1.1742739944120713
2019-04-03,1.180275059711039
2019-04-04,1.1864610713409962
2019-04-08,1.1823326822818394
2019-04-09,1.188611394024253
2019-04-10,1.196385482269077
2019-04-11,1.1723274669713812
2019-04-12,1.1684208400885494
2019-04-15,1.1689772423616676
2019-04-16,1.1830491116270776
2019-04-17,1.1941979886614276
2019-04-18,1.1929376966060163
2019-04-19,1.2012465301823512
2019-04-22,1.1874260746103595
2019-04-23,1.186811321969079
2019-04-24,1.1899887677670704
2019-04-25,1.1818020311830164
2019-04-26,1.1715733869103162
2019-04-29,1.1797457411003645
2019-04-30,1.1775100691407674
2019-05-06,1.160303023461111
2019-05-07,1.1647962486722927
2019-05-08,1.1622390932281124
2019-05-09,1.1618194402204125
2019-05-10,1.1666273241499618
2019-05-13,1.165793693807204
2019-05-14,1.165375472322262
2019-05-15,1.1683537412078613
2019-05-16,1.168359786098698
2019-05-17,1.1632090379499394
2019-05-20,1.1593974507584845
2019-05-21,1.1605054845647187
2019-05-22,1.1604235520315171
2019-05-23,1.15733542638337
2019-05-24,1.15713636638144
2019-05-27,1.1582141251722726
2019-05-28,1.1595917929701869
2019-05-29,1.158409114829745
2019-05-30,1.1586367195333238
2019-05-31,1.158363358470349
2019-06-03,1.1587700704409343
2019-06-04,1.1573797357377922
2019-06-05,1.157729477036059
2019-06-06,1.1534767154669325
2019-06-10,1.1573236609639868
2019-06-11,1.1615317782875494
2019-06-12,1.1580318973439907
2019-06-13,1.15374425386013
2019-06-14,1.1500729628589488
2019-06-17,1.1505367777587205
2019-06-18,1.1515014867052957
2019-06-19,1.1583010319692202
2019-06-20,1.1808095274758441
2019-06-21,1.1804029112552505
2019-06-24,1.183832899859788
2019-06-25,1.1771171376509075
2019-06-26,1.1799960081787009
2019-06-27,1.1972962410218955
2019-06-28,1.197388539844937
2019-07-01,1.2256832614135886
2019-07-02,1.2275993104075837
2019-07-03,1.214066957419959
2019-07-04,1.2059463427380848
2019-07-05,1.2161169634635502
2019-07-08,1.195436349778746
2019-07-09,1.196106988083424
2019-07-10,1.199414687244854
2019-07-11,1.1953006090397438
2019-07-12,1.199259203192268
2019-07-15,1.2033585052079931
2019-07-16,1.195765948321491
2019-07-17,1.1982544076515023
2019-07-18,1.1935608317981474
2019-07-19,1.1970704280022224
2019-07-22,1.1981856352457545
2019-07-23,1.20352086297956
2019-07-24,1.206855885319075
2019-07-25,1.213982618054196
2019-07-26,1.2180425935293662
2019-07-29,1.2184714311255234
2019-07-30,1.2176388580502355
2019-07-31,1.2138101916300246
2019-08-01,1.2123943384264708
2019-08-02,1.20575125968261
2019-08-05,1.1934611041839638
2019-08-06,1.1918088701163263
2019-08-07,1.1904782089980739
2019-08-08,1.192456752737431
2019-08-09,1.1885489897473291
2019-08-12,1.1935741358789487
2019-08-13,1.1924412031619398
2019-08-14,1.194095713728595
2019-08-15,1.196921861863759
2019-08-16,1.1977429096532146
2019-08-19,1.2054082729276887
2019-08-20,1.2086668853015199
2019-08-21,1.2064590559328248
2019-08-22,1.2091383075750093
2019-08-23,1.2153981051525817
2019-08-26,1.2075432350348245
2019-08-27,1.2183528050918353
2019-08-28,1.2190308705426371
2019-08-29,1.2165402029808152
2019-08-30,1.2209497142228698
2019-09-02,1.233650415655279
2019-09-03,1.234564807107095
2019-09-04,1.2320666496926769
2019-09-05,1.2372034543156072
2019-09-06,1.2392304758240236
2019-09-09,1.2403558175873468
2019-09-10,1.2351553977166976
2019-09-11,1.2241026042838559
2019-09-12,1.2270670045900673
2019-09-16,1.2238150169131663
2019-09-17,1.212215482069253
2019-09-18,1.212342332012847
2019-09-19,1.2143745484479311
2019-09-20,1.2175010597333755
2019-09-23,1.2113274945032646
2019-09-24,1.2130307307647263
2019-09-25,1.2090839326790923
2019-09-26,1.2053988334956878
2019-09-27,1.2071432068998806
2019-09-30,1.2038667087506179
2019-10-08,1.2051138914367685
2019-10-09,1.203868332786076
2019-10-10,1.2050140363277142
2019-10-11,1.207245034697296
2019-10-14,1.2086671760846042
2019-10-15,1.2119502794192871
2019-10-16,1.2105817323385866
2019-10-17,1.211745693507837
2019-10-18,1.2073252430108414
2019-10-21,1.21083011297117
2019-10-22,1.2129883783979682
2019-10-23,1.2103469637425002
2019-10-24,1.210403087901178
2019-10-25,1.217079538799888
2019-10-28,1.2173148666155627
2019-10-29,1.2180472165943965
2019-10-30,1.2169895320880868
2019-10-31,1.2156699486761406
2019-11-01,1.2255613138786934
2019-11-04,1.2296019536017497
2019-11-05,1.2372051592723523
2019-11-06,1.2362257795624656
2019-11-07,1.2369686514572664
2019-11-08,1.2384575362927315
2019-11-11,1.2279120391255762
2019-11-12,1.2289523747468833
2019-11-13,1.2353901053854788
2019-11-14,1.2360578237887858
2019-11-15,1.2321194300818095
2019-11-18,1.2317981104510671
2019-11-19,1.240446441331727
2019-11-20,1.2344930466087822
2019-11-21,1.2315295384012526
2019-11-22,1.2217065455508178
2019-11-25,1.2244535660236677
2019-11-26,1.225101424595002
2019-11-27,1.222328133665275
2019-11-28,1.2214407498031212
2019-11-29,1.2191915297748983
2019-12-02,1.224336430783488
2019-12-03,1.2280894972156484
2019-12-04,1.2266863233895118
2019-12-05,1.229867163543263
2019-12-06,1.2342626911669137
2019-12-09,1.2356091582819886
2019-12-10,1.2390805619948144
2019-12-11,1.2364615946548783
2019-12-12,1.2331448916289562
2019-12-13,1.2406345119700464
2019-12-16,1.2409435561646178
2019-12-17,1.2480287745896776
2019-12-18,1.2445837760803669
2019-12-19,1.2427794351666996
2019-12-20,1.2418965423975237
2019-12-23,1.2348422297706245
2019-12-24,1.2423505021732084
2019-12-25,1.2458584960597348
2019-12-26,1.2498625165387813
2019-12-27,1.247065688022297
2019-12-30,1.25777052578363
2019-12-31,1.2588747336957542
2020-01-02,1.2721877332253801
2020-01-03,1.2704021151452292
2020-01-06,1.265613641506249
2020-01-07,1.2699646089092291
2020-01-08,1.2632308622688304
2020-01-09,1.2737233895706985
2020-01-10,1.2723066843254294
2020-01-13,1.2817354221577548
2020-01-14,1.2780671801656116
2020-01-15,1.2776752466010295
2020-01-16,1.2762351745575737
2020-01-17,1.2783918658722317
2020-01-20,1.2876981608559614
2020-01-21,1.2733405851586974
2020-01-22,1.280391013101372
2020-01-23,1.269006494481006
2020-02-03,1.2510281962916086
2020-02-04,1.2670807009329599
2020-02-05,1.2801469628977524
2020-02-06,1.285880838976184
2020-02-07,1.2811681123603345
2020-02-10,1.2834670445761656
2020-02-11,1.2829618127816782
2020-02-12,1.2880536486642915
2020-02-13,1.2876321491429825
2020-02-14,1.2876746987348968
2020-02-17,1.2985327836391896
2020-02-18,1.29934237259325
2020-02-19,1.2977887932897743
2020-02-20,1.3138189265070142
2020-02-21,1.3172235123787142
2020-02-24,1.318479471069896
2020-02-25,1.3270516479801622
2020-02-26,1.3054831461394945
2020-02-27,1.3062236245116639
2020-02-28,1.2866569691912417
2020-03-02,1.3013437873124738
2020-03-03,1.3011221515061704
2020-03-04,1.3009119717366542
2020-03-05,1.3110735426933753
2020-03-06,1.2985917729007657
2020-03-09,1.277655869509929
2020-03-10,1.2846541912736427
2020-03-11,1.2767806025222415
2020-03-12,1.2706803883102433
2020-03-13,1.2682100828828682
2020-03-16,1.2617135397873336
2020-03-17,1.2616803367994445
2020-03-18,1.261080021318422
2020-03-19,1.2623734076286743
2020-03-20,1.2620790440880074
2020-03-23,1.2603801560796377
2020-03-24,1.2603469881807936
2020-03-25,1.2609251549675333
2020-03-26,1.2638876206337264
2020-03-27,1.2621683200088394
2020-03-30,1.262150876329249
2020-03-31,1.2621644051756402
2020-04-01,1.2585920917682507
2020-04-02,1.2596732922056335
2020-04-03,1.2609204806544172
2020-04-07,1.2681363718056542
2020-04-08,1.2666167131657107
2020-04-09,1.2665476492662338
2020-04-10,1.261981501587013
2020-04-13,1.2622893098467955
2020-04-14,1.2715503511182296
2020-04-15,1.263608055091573
2020-04-16,1.2669406206238585
2020-04-17,1.277156587590714
2020-04-20,1.2817055950546423
2020-04-21,1.2703666967630787
2020-04-22,1.2796330440500763
2020-04-23,1.2786130297058127
2020-04-24,1.274032608646331
2020-04-27,1.2770280228912492
2020-04-28,1.2959348814375866
2020-04-29,1.292515488862846
2020-04-30,1.3023580323109591
2020-05-06,1.3049619941226143
2020-05-07,1.3018032778973885
2020-05-08,1.3069663410334882
2020-05-11,1.3027461799365274
2020-05-12,1.3088821163859472
2020-05-13,1.3109911592294654
2020-05-14,1.2997268933484292
2020-05-15,1.2979722713480248
2020-05-18,1.2986584644427228
2020-05-19,1.307021942590665
2020-05-20,1.302783757923872
2020-05-21,1.2992481552566602
2020-05-22,1.2853694258797193
2020-05-25,1.2904855469265155
2020-05-26,1.2945523702285153
2020-05-27,1.293390221023733
2020-05-28,1.2911532620950013
2020-05-29,1.2971811103654003
2020-06-01,1.3074622281190005
2020-06-02,1.3040346942783025
2020-06-03,1.3034054711391918
2020-06-04,1.3017053015759952
2020-06-05,1.3100731665471825
2020-06-08,1.3136853660468708
2020-06-09,1.3200382284949763
2020-06-10,1.3202239718719257
2020-06-11,1.3153290839398322
2020-06-12,1.317345463738975
2020-06-15,1.3059775537494447
2020-06-16,1.315536959750338
2020-06-17,1.3150517109635484
2020-06-18,1.320953744287175
2020-06-19,1.335960528915185
2020-06-22,1.3378525656564382
2020-06-23,1.351157848830844
2020-06-24,1.35750522255744
2020-06-29,1.3614194759110199
2020-06-30,1.3776679383182604
2020-07-01,1.394389716988787
2020-07-02,1.4078233198166032
2020-07-03,1.4246322022580944
2020-07-06,1.4896405782840834
2020-07-07,1.4991691731653694
2020-07-08,1.5144740607414877
2020-07-09,1.5369898649017604
2020-07-10,1.520730142915144
2020-07-13,1.5587652358893898
2020-07-14,1.5507072531576729
2020-07-15,1.5529318455961494
2020-07-16,1.4757825235115902
2020-07-17,1.489518680620526
2020-07-20,1.5185958714155896
2020-07-21,1.532617772635255
2020-07-22,1.5394806650171695
2020-07-23,1.556339683852131
2020-07-24,1.5116609969408938
2020-07-27,1.5255331669893026
2020-07-28,1.5266767161148191
2020-07-29,1.5424089631995612
2020-07-30,1.5518145509335068
2020-07-31,1.560638943527258
2020-08-03,1.5705592947999343
2020-08-04,1.563820964191912
2020-08-05,1.5701447230985608
2020-08-06,1.5600166479198032
2020-08-07,1.559028554952578
2020-08-10,1.556470481651405
2020-08-11,1.5440503773048126
2020-08-12,1.5319474778489475
2020-08-13,1.5331020816729177
2020-08-14,1.5368207834747072
2020-08-17,1.5453757389004446
2020-08-18,1.5425468161817792
2020-08-19,1.5345037400689623
2020-08-20,1.5246274067234935
2020-08-21,1.5276948336570333
2020-08-24,1.532128540395226
2020-08-25,1.5353636358868636
2020-08-26,1.53474289230051
2020-08-27,1.5335711886551044
2020-08-28,1.5462282632129347
2020-08-31,1.5465908369578705
2020-09-01,1.5495112828537676
2020-09-02,1.551196495761451
2020-09-03,1.5513467403677534
2020-09-04,1.5428040174349478
2020-09-07,1.5273732271763443
2020-09-08,1.5262807078631193
2020-09-09,1.5150277474600085
2020-09-10,1.5204883813038566
2020-09-11,1.5296963039048168
2020-09-14,1.5333065380769049
2020-09-15,1.539323341847574
2020-09-16,1.5408866699549062
2020-09-17,1.5430056611932361
2020-09-18,1.5458097060182996
2020-09-21,1.53540767176574
2020-09-22,1.5283919568721442
2020-09-23,1.532812618132921
2020-09-24,1.5179999345169906
2020-09-25,1.5155129574135238
2020-09-28,1.520624311522423
2020-09-29,1.521998130814076
2020-09-30,1.5277509634537076
2020-10-09,1.5438857906386017
2020-10-12,1.5622357016952542
2020-10-13,1.5775551464935413
2020-10-14,1.5721550362527814
2020-10-15,1.5651897343966412
2020-10-16,1.5575416949458736
2020-10-19,1.54684859387018
2020-10-20,1.566731722089685
2020-10-21,1.5629388956206067
2020-10-22,1.5638860444356026
2020-10-23,1.5463419782679764
2020-10-26,1.5506090539863562
2020-10-27,1.5505688585407629
2020-10-28,1.560589775513805
2020-10-29,1.571574120945342
2020-10-30,1.5618950598673296
2020-11-02,1.5845588980177605
2020-11-03,1.5901416404193023
2020-11-04,1.5998435393100328
2020-11-05,1.6134179294916302
2020-11-06,1.6181603944041623
2020-11-09,1.627805146450579
2020-11-10,1.6260011799807967
2020-11-11,1.6099605208621142
2020-11-12,1.6139894130649597
2020-11-13,1.5993290491917118
2020-11-16,1.6124404019089862
2020-11-17,1.6050864798256754
2020-11-18,1.6006993555882993
2020-11-19,1.605942826185257
2020-11-20,1.6083540260919806
2020-11-23,1.615796114437321
2020-11-24,1.6079449967260426
2020-11-25,1.5967563829768656
2020-11-26,1.5983241382840225
2020-11-27,1.6094640130753524
2020-11-30,1.607100566853469
2020-12-01,1.6214149247612506
2020-12-02,1.6196843078516296
2020-12-03,1.6132082235247645
2020-12-04,1.6108264284808576
2020-12-07,1.6003989849615328
2020-12-08,1.5989891635806612
2020-12-09,1.588488859865368
2020-12-10,1.592521115355603
2020-12-11,1.5917762150097554
2020-12-14,1.5973425750808696
2020-12-15,1.6011186368703574
2020-12-16,1.6077143422590148
2020-12-17,1.6189321676224506
2020-12-18,1.6181287628152274
2020-12-21,1.6374623377464679
2020-12-22,1.6333238214924437
2020-12-23,1.6448646767056623
2020-12-24,1.6409427962638592
2020-12-25,1.6537552393962283
2020-12-28,1.663116309545597
2020-12-29,1.6462341386775488
2020-12-30,1.6735454734145374
2020-12-31,1.6954875587902136
2021-01-04,1.7271341362701207
2021-01-05,1.7650092675836695
2021-01-06,1.7715150048092014
2021-01-07,1.8124881683197904
2021-01-08,1.796114499493555
2021-01-11,1.7832419816698042
2021-01-12,1.8295770467059833
2021-01-13,1.815675597453802
2021-01-14,1.771337684226256
2021-01-15,1.7700844415777848
2021-01-18,1.7836099553553126
2021-01-19,1.7587048017556486
2021-01-20,1.7694427129717656
2021-01-21,1.7899064593661909
2021-01-22,1.7904322783586994
2021-01-25,1.7993779494036117
2021-01-26,1.7707197502111942
2021-01-27,1.784768802143393
2021-01-28,1.7562170836627609
2021-01-29,1.7481179213161624
2021-02-01,1.7498254558654336
2021-02-02,1.7573126390084124
2021-02-03,1.7625874956746754
2021-02-04,1.7611821361549158
2021-02-05,1.7658770203636664
2021-02-08,1.776183522354396
2021-02-09,1.7879276149361423
2021-02-10,1.8225948673146426
2021-02-18,1.809986638249251
2021-02-19,1.7998880169106168
2021-02-22,1.7665611257911902
2021-02-23,1.7624253766229658
2021-02-24,1.7431508131699822
2021-02-25,1.756138203058039
2021-02-26,1.735416208360074
2021-03-01,1.740381678736668
2021-03-02,1.7352341822833226
2021-03-03,1.7433857795878513
2021-03-04,1.7358941013870006
2021-03-05,1.7315725095695786
2021-03-08,1.7306507649148726
2021-03-09,1.728924705108743
2021-03-10,1.7259749475694584
2021-03-11,1.7298166833454707
2021-03-12,1.7329548118569649
2021-03-15,1.7338841045633127
2021-03-16,1.7338089113465533
2021-03-17,1.7289488961050399
2021-03-18,1.7284972562381185
2021-03-19,1.723698121744303
2021-03-22,1.7267392621505666
2021-03-23,1.725299219744409
2021-03-24,1.7249407262604373
2021-03-25,1.7255777707489581
2021-03-26,1.7250809868425248
2021-03-29,1.727345661912671
2021-03-30,1.727655325897112
2021-03-31,1.7258160567563368
2021-04-01,1.7299728206194327
2021-04-02,1.737751769150357
2021-04-06,1.7286049422762133
2021-04-07,1.716254469994734
2021-04-08,1.7209185173425574
2021-04-09,1.7053342526850626
2021-04-12,1.699912942821598
2021-04-13,1.6981332086206335
2021-04-14,1.6999375994409454
2021-04-15,1.6963175926630676
2021-04-16,1.699220467997311
2021-04-19,1.7167589183650342
2021-04-20,1.71811789915961
2021-04-21,1.7210784136260067
2021-04-22,1.722495022130178
2021-04-23,1.7349803800526438
2021-04-26,1.726566017429999
2021-04-27,1.7306019089735094
2021-04-28,1.7481205818390817
2021-04-29,1.7581990141141755
2021-04-30,1.7636880242181274
2021-05-06,1.7481736291833123
2021-05-07,1.7303425412631237
2021-05-10,1.7388574781590245
2021-05-11,1.7397943401840257
2021-05-12,1.7433632023988788
2021-05-13,1.738603754786117
2021-05-14,1.7484280751134536
2021-05-17,1.7590075819881508
2021-05-18,1.756696689235295
2021-05-19,1.7547550774557001
2021-05-20,1.7516610549884704
2021-05-21,1.7469763715108175
2021-05-24,1.7521289458050042
2021-05-25,1.772083710466854
2021-05-26,1.7730701121871149
2021-05-27,1.7724357953345096
2021-05-28,1.77610503730146
2021-05-31,1.781026315673141
2021-06-01,1.7831048976231345
2021-06-02,1.7692205881400207
2021-06-03,1.7634938070035155
2021-06-04,1.770239448824998
2021-06-07,1.7680234161751176
2021-06-08,1.7614719391170124
2021-06-09,1.7634943184464766
2021-06-10,1.7749653498062237
2021-06-11,1.7740075679595515
2021-06-15,1.7721632797204878
2021-06-16,1.7481351654132222
2021-06-17,1.756517270151232
2021-06-18,1.7633288563744371
2021-06-21,1.7619986974612754
2021-06-22,1.7605307397070413
2021-06-23,1.764431437021603
2021-06-24,1.7681650725277962
2021-06-25,1.7705390862829213
2021-06-28,1.775959399665909
2021-06-29,1.7749979992540603
2021-06-30,1.778519419306263
2021-07-01,1.772055879694026
2021-07-02,1.7529450853053146
2021-07-05,1.7604135190216472
2021-07-06,1.7537512426946158
2021-07-07,1.7640010580041272
2021-07-08,1.7637456265800349
2021-07-09,1.7649119671706497
2021-07-12,1.7698665627640946
2021-07-13,1.7630882928419989
2021-07-14,1.7485346308980274
2021-07-15,1.7559973140562761
2021-07-16,1.74544805739794
2021-07-19,1.7470138304415836
2021-07-20,1.7467255571773488
2021-07-21,1.7584526246080276
2021-07-22,1.7550643937078463
2021-07-23,1.7532542909004776
2021-07-26,1.7378747550105196
2021-07-27,1.7231985577505786
2021-07-28,1.7190677868665776
2021-07-29,1.724270103162206
2021-07-30,1.7277804130076324
2021-08-02,1.736829576671017
2021-08-03,1.734723367433094
2021-08-04,1.7466130690042878
2021-08-05,1.7466831283844015
2021-08-06,1.743779686754173
2021-08-09,1.7443495655883585
2021-08-10,1.7433189707457197
2021-08-11,1.7390601363385785
2021-08-12,1.7427681401835506
2021-08-13,1.7395231177324406
2021-08-16,1.7405367101786542
2021-08-17,1.7325223316699463
2021-08-18,1.74032811503411
2021-08-19,1.7303496450390883
2021-08-20,1.7282178260061947
2021-08-23,1.729423942608432
2021-08-24,1.730620913511307
2021-08-25,1.7319207858571577
2021-08-26,1.7271927603896977
2021-08-27,1.7316963894698123
2021-08-30,1.7337397155817837
2021-08-31,1.7405272464119315
2021-09-01,1.7364384790740262
2021-09-02,1.743965393863296
2021-09-03,1.7397898553447602
2021-09-06,1.742016291947792
2021-09-07,1.7469624711795804
2021-09-08,1.7437902459827959
2021-09-09,1.7537001138077501
2021-09-10,1.7579332627331148
2021-09-13,1.759246371790131
2021-09-14,1.7416364577613634
2021-09-15,1.7297274408980086
2021-09-16,1.7222518621509288
2021-09-17,1.7252618834561517
2021-09-22,1.7326274855311115
2021-09-23,1.730607440190439
2021-09-24,1.7306651033429734
2021-09-27,1.734430790758814
2021-09-28,1.733057870393075
2021-09-29,1.7328405516616796
2021-09-30,1.737206918308766
2021-10-08,1.7528318367862783
2021-10-11,1.7513464894255253
2021-10-12,1.7495895104144552
2021-10-13,1.7571846952745933
2021-10-14,1.750684683303682
2021-10-15,1.7517335646698895
2021-10-18,1.7294247796616782
2021-10-19,1.7317455418218566
2021-10-20,1.7293298508408153
2021-10-21,1.7247694522094488
2021-10-22,1.7361428921286035
2021-10-25,1.7402408423352105
2021-10-26,1.7348930282695045
2021-10-27,1.7257306407361905
2021-10-28,1.7233385568659025
2021-10-29,1.736126282128926
2021-11-01,1.7342559623370324
2021-11-02,1.7300563389434285
2021-11-03,1.718677885632631
2021-11-04,1.725763383777071
2021-11-05,1.723695191337462
2021-11-08,1.7221083849626841
2021-11-09,1.719067666031529
2021-11-10,1.7135297078085086
2021-11-11,1.7153353742481376
2021-11-12,1.7124057595082864
2021-11-15,1.7090221803994217
2021-11-16,1.7083072237333883
2021-11-17,1.7054643330999917
2021-11-18,1.6999920575261933
2021-11-19,1.7084847277055886
2021-11-22,1.7045675933918343
2021-11-23,1.7040397754978824
2021-11-24,1.7035663424785026
2021-11-25,1.700582897088833
2021-11-26,1.6948015292744254
2021-11-29,1.696803881311553
2021-11-30,1.6938057369172526
2021-12-01,1.694427528982793
2021-12-02,1.6974437138828165
2021-12-03,1.7053933151417857
2021-12-06,1.7029818509432828
2021-12-07,1.703589700867042
2021-12-08,1.7101351388529926
2021-12-09,1.7218390583616086
2021-12-10,1.7152954091443262
2021-12-13,1.7240268145818725
2021-12-14,1.7138817678945033
2021-12-15,1.704696162770418
2021-12-16,1.7089093338932437
2021-12-17,1.6942301311486478
2021-12-20,1.6882787985441854
2021-12-21,1.6933886089469898
2021-12-22,1.692610563225433
2021-12-23,1.6974787080624314
2021-12-24,1.6986401266943867
2021-12-27,1.697193659296569
2021-12-28,1.6974704117347879
2021-12-29,1.6854944777869103
2021-12-30,1.6879767376378403
2021-12-31,1.6906952471172583
2022-01-04,1.6964474831865424
2022-01-05,1.6915208563025252
2022-01-06,1.6850418477925388
2022-01-07,1.6941385853520867
2022-01-10,1.69836384102955
2022-01-11,1.6925521734504518
2022-01-12,1.688507807276283
2022-01-13,1.6806757291093235
2022-01-14,1.6711748154549573
2022-01-17,1.6702485297477423
2022-01-18,1.6716359590165175
2022-01-19,1.6709827955323693
2022-01-20,1.6759379686226308
2022-01-21,1.670609566854079
2022-01-24,1.6673870689998622
2022-01-25,1.6603490348871042
2022-01-26,1.6604664030202276
2022-01-27,1.6562992552757658
2022-01-28,1.6520264931223771
2022-02-07,1.655045592686505
2022-02-08,1.6577862197843
2022-02-09,1.6589250522776235
2022-02-10,1.6699291466888166
2022-02-11,1.6734637277788842
2022-02-14,1.66428631432549
2022-02-15,1.6581947711872214
2022-02-16,1.6595722208413968
2022-02-17,1.660611654529427
2022-02-18,1.6654759145439744
2022-02-21,1.6627539028695757
2022-02-22,1.657992874626109
2022-02-23,1.6525418661236504
2022-02-24,1.64538149458532
2022-02-25,1.643468092316085
2022-02-28,1.6473377754012595
2022-03-01,1.6489001504336191
2022-03-02,1.6504438897257776
2022-03-03,1.650011680888672
2022-03-04,1.64748095082777
2022-03-07,1.641279265214696
2022-03-08,1.6354936776740863
2022-03-09,1.6357392013023806
2022-03-10,1.6375816255520235
2022-03-11,1.6379296426306842
2022-03-14,1.6352854866591633
2022-03-15,1.6286403135966732
2022-03-16,1.634655234491511
2022-03-17,1.6366192108808586
2022-03-18,1.6372233240683913
2022-03-21,1.642068931866978
2022-03-22,1.6410871616081693
2022-03-23,1.6377727512242894
2022-03-24,1.6369007098240695
2022-03-25,1.6336868836243448
2022-03-28,1.6336812664633134
2022-03-29,1.637844303804933
2022-03-30,1.6389246826558967
2022-03-31,1.6376122435733187
2022-04-01,1.641487764439122
2022-04-06,1.6454890837301308
2022-04-07,1.635668608843874
2022-04-08,1.6418747955975426
2022-04-11,1.6307409593819076
2022-04-12,1.6308021999664315
2022-04-13,1.6317472225480334
2022-04-14,1.6402796056222413
2022-04-15,1.6389830885770527
2022-04-18,1.6250148576143566
2022-04-19,1.6202541040266172
2022-04-20,1.610162467382128
2022-04-21,1.6031222300775205
2022-04-22,1.605291267015625
2022-04-25,1.5883207276713487
2022-04-26,1.5901422624054464
2022-04-27,1.5906494761510432
2022-04-28,1.5909182146511578
2022-04-29,1.597030281914205
2022-05-05,1.5923971291155796
2022-05-06,1.577529793534854
2022-05-09,1.57277199253172
2022-05-10,1.5758077043541776
2022-05-11,1.5752887198366796
2022-05-12,1.5760765770412013
2022-05-13,1.5823419861167982
2022-05-16,1.5779339853488032
2022-05-17,1.5865140090302663
2022-05-18,1.5876481448520305
2022-05-19,1.5948624096905721
2022-05-20,1.5994536997304245
2022-05-23,1.5957386242023242
2022-05-24,1.5837848519643263
2022-05-25,1.587996160835703
2022-05-26,1.586106306673864
2022-05-27,1.5853306793626103
2022-05-30,1.5861781049678545
2022-05-31,1.5914188641558056
2022-06-01,1.588189456470221
2022-06-02,1.595747817461535
2022-06-06,1.61446562476324
2022-06-07,1.612954065908482
2022-06-08,1.627212341844331
2022-06-09,1.6094716225065884
2022-06-10,1.6261966854729215
2022-06-13,1.611182940853154
2022-06-14,1.6205794881470696
2022-06-15,1.6293795337670192
2022-06-16,1.6216826591632376
2022-06-17,1.63351812634893
2022-06-20,1.6421473577009664
2022-06-21,1.6436502238335895
2022-06-22,1.6288560504300016
2022-06-23,1.6457845496046701
2022-06-24,1.6606988091933912
2022-06-27,1.678918280189537
2022-06-28,1.6918489207974252
2022-06-29,1.6699213602139216
2022-06-30,1.6938905979117183
2022-07-01,1.688189788656569
2022-07-04,1.7006650990653527
2022-07-05,1.6967368662877622
2022-07-06,1.6711359030386639
2022-07-07,1.668200422677726
2022-07-08,1.671352218938174
2022-07-11,1.661572879770868
2022-07-12,1.6573389584916576
2022-07-13,1.6561644656715802
2022-07-14,1.653763419410157
2022-07-15,1.6409080378160668
2022-07-18,1.6455640449960347
2022-07-19,1.641863014951663
2022-07-20,1.6408988040686783
2022-07-21,1.6411750125653568
2022-07-22,1.6411841397709444
2022-07-25,1.6415533157153253
2022-07-26,1.6375714681433684
2022-07-27,1.6370283373044079
2022-07-28,1.6364821587650549
2022-07-29,1.6363655727709638
2022-08-01,1.6377481464168326
2022-08-02,1.6366763392798132
2022-08-03,1.635556608006848
2022-08-04,1.6376131197344013
2022-08-05,1.6387185143952856
2022-08-08,1.6387330172516261
2022-08-09,1.6387303235073019
2022-08-10,1.6360181807719385
2022-08-11,1.6437539753164676
2022-08-12,1.6411870126914028
2022-08-15,1.635691083680892
2022-08-16,1.6349260735968734
2022-08-17,1.6392627238056843
2022-08-18,1.6350986627954371
2022-08-19,1.6309259072954672
2022-08-22,1.6342103217484214
2022-08-23,1.6328526072008456
2022-08-24,1.6265830542243562
2022-08-25,1.6309901655807568
2022-08-26,1.6286027291115042
2022-08-29,1.6267186655658583
2022-08-30,1.6249505469577117
2022-08-31,1.625205940338155
2022-09-01,1.6221844191773493
2022-09-02,1.6185762579163188
2022-09-05,1.6217425979064894
2022-09-06,1.6230629476501002
2022-09-07,1.6201194811988142
2022-09-08,1.6214755792379159
2022-09-09,1.6298604555425624
2022-09-13,1.6332994197837531
2022-09-14,1.62828333585565
2022-09-15,1.6314804921051171
2022-09-16,1.6153868655958679
2022-09-19,1.6184849464637308
2022-09-20,1.6139681938432653
2022-09-21,1.6126026820427815
2022-09-22,1.6110976288608336
2022-09-23,1.611515231092606
2022-09-26,1.6115481757000898
2022-09-27,1.6160411488814976
2022-09-28,1.6148143566115156
2022-09-29,1.612394004369762
2022-09-30,1.6114430738914762
2022-10-10,1.601801600369353
2022-10-11,1.6015225975001588
2022-10-12,1.6011067975188675
2022-10-13,1.5999592871086936
2022-10-14,1.6062811063834195
2022-10-17,1.6072557357926969
2022-10-18,1.6067588817862855
2022-10-19,1.6048742725713594
2022-10-20,1.6053470838283475
2022-10-21,1.6062772813125128
2022-10-24,1.5999284690311288
2022-10-25,1.5979961637872664
2022-10-26,1.6035823665274536
2022-10-27,1.6039469002733722
2022-10-28,1.5987311171712508
2022-10-31,1.6010843639143646
2022-11-01,1.6055855996389365
2022-11-02,1.6093892992034302
2022-11-03,1.6054312706113103
2022-11-04,1.6153518138294611
2022-11-07,1.616091638997762
2022-11-08,1.6114975634193374
2022-11-09,1.6086571652989232
2022-11-10,1.6017845409979092
2022-11-11,1.6102364631576185
2022-11-14,1.6142945714629688
2022-11-15,1.634554098010245
2022-11-16,1.6280667214121196
2022-11-17,1.622549852568581
2022-11-18,1.6189235646838156
2022-11-21,1.605114553463019
2022-11-22,1.6090448337651821
2022-11-23,1.6063036055328193
2022-11-24,1.6030821789003447
2022-11-25,1.6122974145995717
2022-11-28,1.5990202042103174
2022-11-29,1.6226447067435814
2022-11-30,1.6189995472541117
2022-12-01,1.6288341294822832
2022-12-02,1.6186784755698267
2022-12-05,1.6477023395422679
2022-12-06,1.6528039005803647
2022-12-07,1.6474686297594145
2022-12-08,1.647899912215929
2022-12-09,1.6689628711576103
2022-12-12,1.6522223526599045
2022-12-13,1.6536838039585533
2022-12-14,1.663901460673813
2022-12-15,1.6566203140921294
2022-12-16,1.6609048133442585
2022-12-19,1.6453958596679197
2022-12-20,1.6253167896384373
2022-12-21,1.630383044848138
2022-12-22,1.634443646681589
2022-12-23,1.6360964960019764
2022-12-26,1.6308481092704592
2022-12-27,1.6360458827010158
2022-12-28,1.6328681270856327
2022-12-29,1.6302553258343504
2022-12-30,1.6317724960846043
2023-01-03,1.6282872190892494
2023-01-04,1.628090443993498
2023-01-05,1.629695265062388
2023-01-06,1.6284995713802068
2023-01-09,1.6385007763954782
2023-01-10,1.637483040145892
2023-01-11,1.6366415414479898
2023-01-12,1.6342531826918036
2023-01-13,1.6495635541668694
2023-01-16,1.6714374225905875
2023-01-17,1.6672627566072395
2023-01-18,1.6607551437535553
2023-01-19,1.6692480274008987
2023-01-20,1.6742741931998655
2023-01-30,1.672688695667526
2023-01-31,1.660256727769465
2023-02-01,1.674657535590723
2023-02-02,1.6675510702430785
2023-02-03,1.654292418246383
2023-02-06,1.6413023345623214
2023-02-07,1.6418524610846188
2023-02-08,1.6388486664665667
2023-02-09,1.6452621079734313
2023-02-10,1.639300982879245
2023-02-13,1.643501185172415
2023-02-14,1.6444737574959765
2023-02-15,1.6437218281674202
2023-02-16,1.6406652524030938
2023-02-17,1.63746769247283
2023-02-20,1.647855296535016
2023-02-21,1.6488441665989457
2023-02-22,1.646289087969352
2023-02-23,1.6463952659527064
2023-02-24,1.6394426232401271
2023-02-27,1.636759875084962
2023-02-28,1.639466690826248
2023-03-01,1.6459785563489138
2023-03-02,1.6471768355313277
2023-03-03,1.6510490970476037
2023-03-06,1.6481293913437407
2023-03-07,1.643721576075839
2023-03-08,1.6422434192425845
2023-03-09,1.64054090898452
2023-03-10,1.6369322561748803
2023-03-13,1.642966456714058
2023-03-14,1.640841688076141
2023-03-15,1.6426111158388148
2023-03-16,1.6375348775807257
2023-03-17,1.6402128058934464
2023-03-20,1.639377100369399
2023-03-21,1.6385907679953255
2023-03-22,1.6405642315416056
2023-03-23,1.6431099225590526
2023-03-24,1.639865148689145
2023-03-27,1.6339976845896942
2023-03-28,1.6312770870544901
2023-03-29,1.633106930831551
2023-03-30,1.633354483683744
2023-03-31,1.632787900009612
2023-04-03,1.6311090205897718
2023-04-04,1.6367071604282708
2023-04-06,1.638904489112516
2023-04-07,1.6461696416208456
2023-04-10,1.6474668923968312
2023-04-11,1.647909824329165
2023-04-12,1.6522105183906919
2023-04-13,1.643287712525777
2023-04-14,1.6472923740692484
2023-04-17,1.6525406536574516
2023-04-18,1.654560015547254
2023-04-19,1.6472941288447551
2023-04-20,1.6444906349788075
2023-04-21,1.629039261107238
2023-04-24,1.625862309093228
2023-04-25,1.6267199468934588
2023-04-26,1.623836240102067
2023-04-27,1.6247364477114385
2023-04-28,1.6256862025525836
2023-05-04,1.625988954626525
2023-05-05,1.6197905290162817
2023-05-08,1.6282423028391557
2023-05-09,1.6237307128410903
2023-05-10,1.618044455276011
2023-05-11,1.6189738917029284
2023-05-12,1.614920957348372
2023-05-15,1.6189075661323111
2023-05-16,1.6185413318737538
2023-05-17,1.616164471068677
2023-05-18,1.6153836658667893
2023-05-19,1.6131390875286575
2023-05-22,1.6152529259557664
2023-05-23,1.6099881288240063
2023-05-24,1.6069143509500592
2023-05-25,1.605171961310102
2023-05-26,1.604300987430815
2023-05-29,1.6051144531502104
2023-05-30,1.6047735507690453
2023-05-31,1.6043468843834272
2023-06-01,1.60523849849163
2023-06-02,1.6043370389700924
2023-06-05,1.6029602633458708
2023-06-06,1.5987730360972165
2023-06-07,1.599425582591493
2023-06-08,1.6001867399117684
2023-06-09,1.5997209862167456
2023-06-12,1.6004756255614738
2023-06-13,1.6002251851966216
2023-06-14,1.6019782999287586
2023-06-15,1.6068818812877406
2023-06-16,1.6120268303541267
2023-06-19,1.6027077735727397
2023-06-20,1.6011515944241044
2023-06-21,1.5921605531809948
2023-06-26,1.5861497827980673
2023-06-27,1.5897444759144952
2023-06-28,1.5878184273919023
2023-06-29,1.5856972293715461
2023-06-30,1.5873529645723339
2023-07-03,1.5915871381962463
2023-07-04,1.592432949252604
2023-07-05,1.5868027990787112
2023-07-06,1.5837191060494025
2023-07-07,1.5818812509415678
2023-07-10,1.5816803653028242
2023-07-11,1.585035640675597
2023-07-12,1.5842087590280547
2023-07-13,1.5881993954038494
2023-07-14,1.5854215237181455
2023-07-17,1.5782176331964162
2023-07-18,1.5770831214249759
2023-07-19,1.5767611447678278
2023-07-20,1.5738135898958932
2023-07-21,1.5747758632870843
2023-07-24,1.5718989529025562
2023-07-25,1.5820551650563763
2023-07-26,1.5817573083830254
2023-07-27,1.5831283947817085
2023-07-28,1.6105727438534276
2023-07-31,1.6132950366254375
2023-08-01,1.6035959155015973
2023-08-02,1.5988062460118728
2023-08-03,1.607463769519031
2023-08-04,1.6083851058117282
2023-08-07,1.600444017224987
2023-08-08,1.5953476773488267
2023-08-09,1.593949226766637
2023-08-10,1.5949502279999566
2023-08-11,1.5733532266520514
2023-08-14,1.56622947157556
2023-08-15,1.5681942659524022
2023-08-16,1.5676070275396305
2023-08-17,1.567783527348819
2023-08-18,1.5671376565638189
2023-08-21,1.5628096822107365
2023-08-22,1.5630149236739947
2023-08-23,1.5629464488852467
2023-08-24,1.5626602901977837
2023-08-25,1.5626191675585681
2023-08-28,1.5625238778587858
2023-08-29,1.562076993945155
2023-08-30,1.5623077526772193
2023-08-31,1.5603469254840094
2023-09-01,1.5611960970497436
2023-09-04,1.566821703236771
2023-09-05,1.56305711396442
2023-09-06,1.5615255103481176
2023-09-07,1.557833532165255
2023-09-08,1.5550083737950071
2023-09-11,1.556463574389807
2023-09-12,1.5564677456723754
2023-09-13,1.5545178960470005
2023-09-14,1.5534834517128264
2023-09-15,1.552234807287501
2023-09-18,1.5549702046007132
2023-09-19,1.555396331548786
2023-09-20,1.5526377747471551
2023-09-21,1.5464632834086645
2023-09-22,1.5478400012434712
2023-09-25,1.5467561621873258
2023-09-26,1.544449143651968
2023-09-27,1.5434390945575887
2023-09-28,1.542131355634371
2023-10-09,1.5418578843435127
2023-10-10,1.5401342792567112
2023-10-11,1.5438286123836316
2023-10-12,1.5454537883705668
2023-10-13,1.5444159582385215
2023-10-16,1.5406399639270272
2023-10-17,1.543070783401658
2023-10-18,1.5426924254524075
2023-10-19,1.5359456999679275
2023-10-20,1.534297407092521
2023-10-23,1.5365205093430852
2023-10-24,1.5359687716850483
2023-10-25,1.5369449080020738
2023-10-26,1.536169794056215
2023-10-27,1.5383860568449472
2023-10-30,1.5456609968525776
2023-10-31,1.5440557062744518
2023-11-01,1.5429689417623953
2023-11-02,1.5398842976115277
2023-11-03,1.5428412767189468
2023-11-06,1.5467387172996871
2023-11-07,1.5435001713044898
2023-11-08,1.5428595360498931
2023-11-09,1.5396791111862913
2023-11-10,1.5372455577872615
2023-11-13,1.5335953978091534
2023-11-14,1.533175425174577
2023-11-15,1.535707344152152
2023-11-16,1.529952672714789
2023-11-17,1.52915186881476
2023-11-20,1.5305289465484861
2023-11-21,1.5318160861150725
2023-11-22,1.5291961920943378
2023-11-23,1.5292626582801725
2023-11-24,1.5298627602017296
2023-11-27,1.5293714747929434
2023-11-28,1.5294365323704442
2023-11-29,1.5294857532559
2023-11-30,1.5304687929469611
2023-12-01,1.5292506768702523
2023-12-04,1.5307539253331697
2023-12-05,1.526874291406438
2023-12-06,1.5269967453072504
2023-12-07,1.526808846521908
2023-12-08,1.5260481284083607
2023-12-11,1.5268843085686241
2023-12-12,1.5265473198491784
2023-12-13,1.5258779609966926
2023-12-14,1.5251844495575595
2023-12-15,1.5245246088442794
2023-12-18,1.5252431906445156
2023-12-19,1.5247648124598885
2023-12-20,1.5229884837905336
2023-12-21,1.522643437353931
2023-12-22,1.5225931128181718
2023-12-25,1.523687093499663
2023-12-26,1.5227678891398906
2023-12-27,1.5245723715109964
2023-12-28,1.5236025341354598
2023-12-29,1.5281343384350168
2024-01-02,1.5190627705211825
2024-01-03,1.5174487729016806
2024-01-04,1.5149612304955986
2024-01-05,1.5130367088187755
2024-01-08,1.507808142675856
2024-01-09,1.5112024094221987
2024-01-10,1.5102871792378192
2024-01-11,1.5096470268886892
2024-01-12,1.5104484390800548
2024-01-15,1.511054860447377
2024-01-16,1.5144261117061184
2024-01-17,1.506789771022948
2024-01-18,1.5107555019923808
2024-01-19,1.508008114822927
2024-01-22,1.5045856642964541
2024-01-23,1.5047042576221257
2024-01-24,1.5089375874138742
2024-01-25,1.5173090552354684
2024-01-26,1.5208912962193155
2024-01-29,1.523468916450933
2024-01-30,1.5169575254306926
2024-01-31,1.515733705653765
2024-02-01,1.5125288863661703
2024-02-02,1.5128977404732022
2024-02-05,1.5190169923951757
2024-02-06,1.5274170234463031
2024-02-07,1.5346230599232564
2024-02-08,1.5376456361794881
2024-02-19,1.5416624782273345
2024-02-20,1.5448582429680482
2024-02-21,1.5596880616085116
2024-02-22,1.5635153653124199
2024-02-23,1.5618453312125549
2024-02-26,1.5495811768322658
2024-02-27,1.5564093624701587
2024-02-28,1.5435114686584848
2024-02-29,1.562447289434764
2024-03-01,1.566224081897886
2024-03-04,1.5655672969561039
2024-03-05,1.576145783544065
2024-03-06,1.571666020006108
2024-03-07,1.5645863565405729
2024-03-08,1.5641176418399731
2024-03-11,1.5755289322511916
2024-03-12,1.5818295224897763
2024-03-13,1.5737213332358324
2024-03-14,1.575748960842606
2024-03-15,1.5740603919005927
2024-03-18,1.5802951321527876
2024-03-19,1.5747318564374968
2024-03-20,1.575224182947665
2024-03-21,1.5749140977861504
2024-03-22,1.5711776383118605
2024-03-25,1.5678216662646487
2024-03-26,1.5715257230804653
2024-03-27,1.5660501234968938
2024-03-28,1.566827300886253
2024-03-29,1.5681802597173222
2024-04-01,1.5760573009892895
2024-04-02,1.5735160148386202
2024-04-03,1.574505238327222
2024-04-08,1.5694337272921082
2024-04-09,1.5657467190716472
2024-04-10,1.5694167475444294
2024-04-11,1.571395498653315
2024-04-12,1.5684769490184145
2024-04-15,1.5785322619870177
2024-04-16,1.5791423874580985
2024-04-17,1.5835867502558951
2024-04-18,1.5843858892636324
2024-04-19,1.5854097828591263
2024-04-22,1.5776331460792423
2024-04-23,1.5705497209653188
2024-04-24,1.5687651461922445
2024-04-25,1.5731355059369023
2024-04-26,1.5735847011824982
2024-04-29,1.5770387479582249
2024-04-30,1.5757196261208293
2024-05-06,1.5956686073793158
2024-05-07,1.5966227804354614
2024-05-08,1.5856864551823413
2024-05-09,1.595311485027754
2024-05-10,1.597377685614078
2024-05-13,1.596748075674047
2024-05-14,1.5965132875991508
2024-05-15,1.5884070656106295
2024-05-16,1.594701701114527
2024-05-17,1.6048996005628604
2024-05-20,1.6058591382448981
2024-05-21,1.6028511551821805
2024-05-22,1.6022413891697687
2024-05-23,1.5915076126781476
2024-05-24,1.5805818311323407
2024-05-27,1.5825737563936073
2024-05-28,1.5787941994482682
2024-05-29,1.5791840658806298
2024-05-30,1.576971609877989
2024-05-31,1.57315200291725
2024-06-03,1.5767512503840877
2024-06-04,1.5776799229076135
2024-06-05,1.5782570810019818
2024-06-06,1.577696925895814
2024-06-07,1.5762994603516676
2024-06-11,1.5764065025092142
2024-06-12,1.5762750827567724
2024-06-13,1.577711440806526
2024-06-14,1.5781196170579854
2024-06-17,1.5819946862776886
2024-06-18,1.5830792149734398
2024-06-19,1.5825660904397523
2024-06-20,1.582319900927652
2024-06-21,1.5825731478937248
2024-06-24,1.5823410979126287
2024-06-25,1.5807265604227196
2024-06-26,1.5822062567412907
2024-06-27,1.581785770404604
2024-06-28,1.5844787220243117
2024-07-01,1.5850562349556103
2024-07-02,1.5847717346260604
2024-07-03,1.5834516214984509
2024-07-04,1.584426567800346
2024-07-05,1.5822866398243165
2024-07-08,1.5845249973478186
2024-07-09,1.5883269157149176
2024-07-10,1.585227476897124
2024-07-11,1.5885108594545945
2024-07-12,1.5889942226370835
2024-07-15,1.5906421100613501
2024-07-16,1.5942268115282792
2024-07-17,1.5931386491125383
2024-07-18,1.5945081604322848
2024-07-19,1.5976042199960545
2024-07-22,1.5918674105541328
2024-07-23,1.5719612228208193
2024-07-24,1.568371070962269
2024-07-25,1.5680536614876839
2024-07-26,1.5658099789346867
2024-07-29,1.5635965709470576
2024-07-30,1.5617185499220245
2024-07-31,1.5651601101843138
2024-08-01,1.5630004796540597
2024-08-02,1.560657847211716
2024-08-05,1.5581052533723976
2024-08-06,1.559322068609783
2024-08-07,1.557631209384035
2024-08-08,1.557560772532617
2024-08-09,1.554675624981168
2024-08-12,1.5564179241431142
2024-08-13,1.554879107475108
2024-08-14,1.5548144556399381
2024-08-15,1.5569057004373226
2024-08-16,1.5568891708422996
2024-08-19,1.556037894601423
2024-08-20,1.5548806227562753
2024-08-21,1.5541843087986302
2024-08-22,1.5554853705971288
2024-08-23,1.5592397946518348
2024-08-26,1.5585592903207293
2024-08-27,1.5588828472713125
2024-08-28,1.5563678265968732
2024-08-29,1.5511283518776762
2024-08-30,1.5547332842538526
2024-09-02,1.546420253909509
2024-09-03,1.54944340706009
2024-09-04,1.5482310313499708
2024-09-05,1.5475023692425574
2024-09-06,1.5431011999060138
2024-09-09,1.5379497905271549
2024-09-10,1.536949876755283
2024-09-11,1.5414051665483686
2024-09-12,1.5407403673426212
2024-09-13,1.5385956074348308
2024-09-18,1.5427541600595707
2024-09-19,1.544745051834225
2024-09-20,1.543943485654302
2024-09-23,1.5447125891755171
2024-09-24,1.5590155774937335
2024-09-25,1.5726229876632924
2024-09-26,1.6158172341543107
2024-09-27,1.6842953620172318
2024-09-30,1.7955961747727405
2024-10-08,1.869019732168664
2024-10-09,1.7551146387180387
2024-10-10,1.7751691481065632
2024-10-11,1.7385411494333396
2024-10-14,1.7638291450557089
2024-10-15,1.72744378275
2024-10-16,1.7130987891034106
2024-10-17,1.6867181365793131
2024-10-18,1.7309196280679362
2024-10-21,1.7384295463706816
2024-10-22,1.7520117380772633
2024-10-23,1.7605664402989416
2024-10-24,1.7420947274008012
2024-10-25,1.7556614284329948
2024-10-28,1.7612208593934808
2024-10-29,1.749314978835371
2024-10-30,1.7453929206153977
2024-10-31,1.7507105349470853
2024-11-01,1.7490098025737006
2024-11-04,1.757268574267171
2024-11-05,1.7686225548660777
2024-11-06,1.7640674695547107
2024-11-07,1.7845026470914815
2024-11-08,1.7698741402687195
2024-11-11,1.7695767860516889
2024-11-12,1.7622461642204534
2024-11-13,1.7629595589188674
2024-11-14,1.7465322663430458
2024-11-15,1.7310035528708712
2024-11-18,1.7244548573735945
2024-11-19,1.7265976433492438
2024-11-20,1.7263286423165103
2024-11-21,1.7274888101499803
2024-11-22,1.7165515035077519
2024-11-25,1.7155921059825567
2024-11-26,1.7155921059825567
2024-11-27,1.7155921059825567
2024-11-28,1.7155921059825567
2024-11-29,1.715546958821873
2024-12-02,1.7153381742555955
2024-12-03,1.7145764859604655
2024-12-04,1.7148466803719429
2024-12-05,1.7137356235392307
2024-12-06,1.7141958169176335
2024-12-09,1.7149213211270604
2024-12-10,1.7151538472261594
2024-12-11,1.7148298971313463
2024-12-12,1.717185905423951
2024-12-13,1.7003491075239356
2024-12-16,1.699562000450332
2024-12-17,1.7010924047966547
2024-12-18,1.7019999411647648
2024-12-19,1.701009672095226
2024-12-20,1.6976150621910815
2024-12-23,1.6990550221950846
2024-12-24,1.704751937154798
2024-12-25,1.7041972089117743
2024-12-26,1.7062716007365446
2024-12-27,1.7052760413001686
2024-12-30,1.7072356344290147
2024-12-31,1.7029705438918477
2025-01-02,1.6917754730688142
2025-01-03,1.690181189292934
2025-01-06,1.6916433553800374
2025-01-07,1.6920347013885342
2025-01-08,1.6943842970066985
2025-01-09,1.6949764607198858
2025-01-10,1.6920610158806046
2025-01-13,1.689928556876258
2025-01-14,1.6911394507606199
2025-01-15,1.6905853172049432
2025-01-16,1.6921152974811389
2025-01-17,1.6920852441077523
2025-01-20,1.691457745871028
2025-01-21,1.6913196869330802
2025-01-22,1.6870286006249442
2025-01-23,1.68509448068359
2025-01-24,1.686985697454624
2025-01-27,1.6859627932171668
2025-02-05,1.684998858951821
2025-02-06,1.690834106038156
2025-02-07,1.6966074227115362
2025-02-10,1.698903898199995
2025-02-11,1.6949328242804977
2025-02-12,1.7064714919889747
2025-02-13,1.7058419409612
2025-02-14,1.714828006556807
2025-02-17,1.712602626205945
2025-02-18,1.706655876414686
2025-02-19,1.7166729745952622
2025-02-20,1.7160532105928423
2025-02-21,1.725350362918517
2025-02-24,1.7218557837006756
2025-02-25,1.7123180081914533
2025-02-26,1.717340035903739
2025-02-27,1.7203693756247975
2025-02-28,1.703072701833352
2025-03-03,1.7031279913501547
2025-03-04,1.6992977585794786
2025-03-05,1.7016367451232521
2025-03-06,1.7061613681946286
2025-03-07,1.7070305429401378
2025-03-10,1.7058626747340178
2025-03-11,1.709207890748584
2025-03-12,1.705239277180309
2025-03-13,1.7055462914134127
2025-03-14,1.7187189474737004
2025-03-17,1.720054138805833
2025-03-18,1.7194900271573135
2025-03-19,1.7233275842518319
2025-03-20,1.7142534785964243
2025-03-21,1.7013267268241863
2025-03-24,1.705558036357413
2025-03-25,1.7041733393227914
2025-03-26,1.7026541061170655
2025-03-27,1.7049289347292582
2025-03-28,1.7029237304728746
2025-03-31,1.7001255214265354
2025-04-01,1.6970933439670532
2025-04-02,1.694991059510544
2025-04-03,1.6945808839503664
2025-04-07,1.682566311495621
2025-04-08,1.6875009978254552
2025-04-09,1.6885017504226039
2025-04-10,1.6900911621315007
2025-04-11,1.6852045923290409
2025-04-14,1.685275228828781
2025-04-15,1.683064718816843
2025-04-16,1.6870815754621171
2025-04-17,1.6865899083988027
2025-04-18,1.6844193319524547
2025-04-21,1.6809517369147013
2025-04-22,1.6809566719620956
2025-04-23,1.6771369475999305
2025-04-24,1.6776339312829978
2025-04-25,1.675903709735496
2025-04-28,1.6727237678568663
2025-04-29,1.6710756179379223
2025-04-30,1.6692493411840807
2025-05-06,1.6719206590958542
2025-05-07,1.6731816767780756
2025-05-08,1.6747230856685602
2025-05-09,1.6756735507284233
2025-05-12,1.6873836360021157
2025-05-13,1.6888607798284538
2025-05-14,1.699156972319192
2025-05-15,1.68976803288507
2025-05-16,1.6836421530205348
2025-05-19,1.6805619750789051
2025-05-20,1.6879747850910516
2025-05-21,1.6918740651928315
2025-05-22,1.692581512392062
2025-05-23,1.6852491950073325
2025-05-26,1.677293863258279
2025-05-27,1.6737069384231529
2025-05-28,1.6771855059272074
2025-05-29,1.6744571889993356
2025-05-30,1.6735664963820773
2025-06-03,1.6765387666105482
2025-06-04,1.6756471473103896
2025-06-05,1.6737306689100713
2025-06-06,1.6726559131023155
2025-06-09,1.6770078028282303
2025-06-10,1.6759719926189465
2025-06-11,1.6780264184059186
2025-06-12,1.6818447034029531
2025-06-13,1.6797702449371763
2025-06-16,1.6790103821008562
2025-06-17,1.6780135016238402
2025-06-18,1.6762935893374178
2025-06-19,1.6715625636422342
2025-06-20,1.6734117412604466
2025-06-23,1.6747562195120298
2025-06-24,1.6771256384508324
2025-06-25,1.6862147527094709
2025-06-26,1.683181791825009
2025-06-27,1.6801382782102128
2025-06-30,1.68189178412284
2025-07-01,1.6816656076428105
2025-07-02,1.6871767238706274
2025-07-03,1.6940968855902334
2025-07-04,1.6972157837306128
2025-07-07,1.6932982792851734
2025-07-08,1.7041774890290926
2025-07-09,1.7028227611632523
2025-07-10,1.7107537871510154
2025-07-11,1.7101933514743426
2025-07-14,1.7112476898004185
2025-07-15,1.7087623478823095
2025-07-16,1.708287114330818
2025-07-17,1.7151180589819985
2025-07-18,1.7188739190362967
2025-07-21,1.7265410455106291
2025-07-22,1.746001667180741
2025-07-23,1.7407668487878118
2025-07-24,1.7530827870254624
2025-07-25,1.737765177503465
2025-07-28,1.7391008363224927
2025-07-29,1.7398683287941545
2025-07-30,1.7412321695028943
2025-07-31,1.7160776652472713
2025-08-01,1.7124746537395001
2025-08-04,1.7114424785922469
2025-08-05,1.7136943772327486
2025-08-06,1.7134416408413484
2025-08-07,1.7136928987978814
2025-08-08,1.7142667226135646
2025-08-11,1.7149602077085762
2025-08-12,1.718026503335263
2025-08-13,1.722539131664572
2025-08-14,1.7206106078062116
2025-08-15,1.7280481905199139
2025-08-18,1.733224719492279
2025-08-19,1.7242893631074874
2025-08-20,1.7312312387434436
2025-08-21,1.736935469724629
2025-08-22,1.7476331410900103
2025-08-25,1.7659559013081567
2025-08-26,1.774629098737247
2025-08-27,1.7472061563126446
2025-08-28,1.7540421448420536
2025-08-29,1.7666559164592461
2025-09-01,1.7699825721095375
2025-09-02,1.7623983462689026
2025-09-03,1.7547458175013857
2025-09-04,1.7450977579164653
2025-09-05,1.7662274255170007
2025-09-08,1.7732416653947642
2025-09-09,1.7685189914995003
2025-09-10,1.7619471797583892
2025-09-11,1.7708475557308245
2025-09-12,1.7661185255008283
2025-09-15,1.7706344937890337
2025-09-16,1.7689289348663024
2025-09-17,1.7707669130859007
2025-09-18,1.7618054079012297
2025-09-19,1.763844703856179
2025-09-22,1.7699861519588245
2025-09-23,1.770006951676344
2025-09-24,1.778044544709175
2025-09-25,1.7824544077396076
2025-09-26,1.775319832052229
2025-09-29,1.7805150235329685
2025-09-30,1.782869148968756
2025-10-09,1.794319395703564
2025-10-10,1.7796263458436494
2025-10-13,1.770970070471231
2025-10-14,1.7680030782472593
2025-10-15,1.7736992974275267
2025-10-16,1.7766217576920686
2025-10-17,1.7688925237353081
2025-10-20,1.765611635054264
2025-10-21,1.7677626720918498
2025-10-22,1.7678271768638198
2025-10-23,1.7699801426243411
2025-10-24,1.7691811335718872
2025-10-27,1.7718069027144956
2025-10-28,1.767327365200453
2025-10-29,1.7717027760521031
2025-10-30,1.772994552529178
2025-10-31,1.7646253776014331
2025-11-03,1.7669891561068831
2025-11-04,1.763389136616685
2025-11-05,1.7654338717600526
2025-11-06,1.7657356788151721
2025-11-07,1.7710865725499954
2025-11-10,1.7789147120861075
2025-11-11,1.7782307618768984
2025-11-12,1.7734721383497631
2025-11-13,1.7816541396153924
2025-11-14,1.7770670246985125
2025-11-17,1.7720673227118604
2025-11-18,1.767836867953394
2025-11-19,1.7695285266218637
2025-11-20,1.7648720110222613
2025-11-21,1.7613792483149475
2025-11-24,1.7587959865939848
2025-11-25,1.760274846639971
2025-11-26,1.7605212191020168
2025-11-27,1.761012606164952
2025-11-28,1.7604016242780594
2025-12-01,1.7610206009998193
2025-12-02,1.7625359372344975
2025-12-03,1.7615672041187083
2025-12-04,1.76157936677822
2025-12-05,1.7621593397609354
2025-12-08,1.7624012313650599
2025-12-09,1.7590921160222794
2025-12-10,1.7590838643467444
2025-12-11,1.7565735565777527
2025-12-12,1.7618922501674545
2025-12-15,1.757670815439447
2025-12-16,1.7538716602165594
2025-12-17,1.7560438160056457
2025-12-18,1.7541123230935034
2025-12-19,1.7563449411486556
2025-12-22,1.758357955732313
2025-12-23,1.7561536983331762
2025-12-24,1.7565430214297864
2025-12-25,1.7569791124178464
2025-12-26,1.7624263917429548
2025-12-29,1.758123722839791
2025-12-30,1.7567810623536118
2025-12-31,1.7572294601267258
2026-01-05,1.7608219085392338
2026-01-06,1.774212489549394
2026-01-07,1.7656634387086818
2026-01-08,1.7602442800223193
2026-01-09,1.7641975541603687
2026-01-12,1.769521964434434
2026-01-13,1.764017101674945
2026-01-14,1.7597073650415933
2026-01-15,1.7571214677060984
2026-01-16,1.7525083382950997
2026-01-19,1.749146124132306
2026-01-20,1.7509311516662407
2026-01-21,1.7520653252887688
2026-01-22,1.7509217846082439
2026-01-23,1.7497770525128333
2026-01-26,1.7490711323090185
2026-01-27,1.7477815894003963
2026-01-28,1.7485001013554748
2026-01-29,1.7511584004249856
2026-01-30,1.7390685023988675
2026-02-02,1.7339342173738475
2026-02-03,1.7367776068927052
2026-02-04,1.741484244509031
2026-02-05,1.741844720691951
2026-02-06,1.7380005471871205
2026-02-09,1.7393496330439768
2026-02-10,1.7362676413138551
2026-02-11,1.7375192023828747
2026-02-12,1.7350886704408712
2026-02-13,1.7283500404061645
2026-02-24,1.7269118644077783
2026-02-25,1.7282038980379062
2026-02-26,1.7230754288152388
2026-02-27,1.722295159777126
2026-03-02,1.7254005704087583
2026-03-03,1.727366605202085
2026-03-04,1.7269435074582389
2026-03-05,1.7241221121488108
2026-03-06,1.7254335553743314
2026-03-09,1.7292182974511732
2026-03-10,1.7249885178344673
2026-03-11,1.730597564186307
2026-03-12,1.7326333486652863
2026-03-13,1.731599905526223
2026-03-16,1.733619370298066
2026-03-17,1.7331417930203177
2026-03-18,1.7301185778297918
2026-03-19,1.7283297688540904
2026-03-20,1.7304033680788549
2026-03-23,1.7197722005778633
2026-03-24,1.7188035637339607
2026-03-25,1.7181301956461315
2026-03-26,1.7155728618868977
2026-03-27,1.7184178488500825
2026-03-30,1.71650772936147
2026-03-31,1.714847209487877
2026-04-01,1.7158159112685172
2026-04-02,1.714576432578153
2026-04-03,1.709132221429681
2026-04-07,1.7080673145243055
2026-04-08,1.7100506535901587
2026-04-09,1.7105890159048127
2026-04-10,1.7124831539241134
2026-04-13,1.7131086733284608
2026-04-14,1.7148593313472162
2026-04-15,1.71423072779587
2026-04-16,1.71835141870844
2026-04-17,1.7119973637311077
2026-04-20,1.7158572992820815
2026-04-21,1.7170680761587827
2026-04-22,1.718186413124225
2026-04-23,1.7158905428203612
2026-04-24,1.7128409991198537
2026-04-27,1.7156701128508862
2026-04-28,1.7148688584318215
2026-04-29,1.7171024929205392
2026-04-30,1.7149325790357117
2026-05-06,1.7200141068642163
2026-05-07,1.7180928822542905
2026-05-08,1.7148972751373983
2026-05-11,1.7259804005122252
2026-05-12,1.7221397825966678
2026-05-13,1.7216664062426972
2026-05-14,1.7111571303184607
2026-05-15,1.7104527003770988
2026-05-18,1.7046991286916164
2026-05-19,1.7046214992656323
2026-05-20,1.7021828934862409
2026-05-21,1.7018415481765194
2026-05-22,1.7012090467737597
2026-05-25,1.703185730342934
2026-05-26,1.702023651301468
2026-05-27,1.701517993202151
2026-05-28,1.7001443739302604
2026-05-29,1.700850848269598
2026-06-01,1.7022499057938716
2026-06-02,1.7027351524911145
2026-06-03,1.7025965901253168
2026-06-04,1.7017683707012237
2026-06-05,1.701904130725371
2026-06-08,1.7034710210948194
2026-06-09,1.7022892703325947
2026-06-10,1.7016689820553375
2026-06-11,1.7019403606721444
2026-06-12,1.7021212225760318
2026-06-15,1.6991990544923257
2026-06-16,1.6960610383698027
2026-06-17,1.6938939233283619
2026-06-18,1.6881497998512998
2026-06-22,1.6902344007755363
2026-06-23,1.6881259373095812
2026-06-24,1.6889095420453408
2026-06-25,1.692253550337848
2026-06-26,1.6823182066034776
2026-06-29,1.6867312788840758
2026-06-30,1.6871575375057726
2026-07-01,1.693758019731052
2026-07-02,1.6926400463700653
2026-07-03,1.6953400145210573
2026-07-06,1.69836467413004
2026-07-07,1.693183232382066
2026-07-08,1.6892759808857973
2026-07-09,1.6955872737435602
2026-07-10,1.694249433024585
2026-07-13,1.6923125931814982
2026-07-14,1.6965146891471963
2026-07-15,1.707503879746676
2026-07-16,1.7078750563487084
2026-07-17,1.698821550999455
2026-07-20,1.724232287647114
2026-07-21,1.7170841483898167
2026-07-22,1.7271583589335533
2026-07-23,1.724792925835654
2026-07-24,1.7103296722214
2026-07-27,1.7127839269734093
2026-07-28,1.7245313193581389
2026-07-29,1.7367995296531498
2026-07-30,1.7603553689890006
2026-07-31,1.7527256028168856
2026-08-03,1.7510883931589853
2026-08-04,1.73083965364082
2026-08-05,1.7276625987804253
2026-08-06,1.7194143111274083
2026-08-07,1.7208613909773256
2026-08-10,1.7255894213319911
2026-08-11,1.7167183470633203
2026-08-12,1.721389695383307
2026-08-13,1.7175607954788854
2026-08-14,1.714439758381815
2026-08-17,1.7120566840823608
2026-08-18,1.7114620062568873
2026-08-19,1.7086968032345269
2026-08-20,1.711196973636279
2026-08-21,1.707124911088531
2026-08-24,1.7072023500568954
2026-08-25,1.7077532457773625
2026-08-26,1.7093381415857567
2026-08-27,1.7092451377337627
2026-08-28,1.7111468732399158
2026-08-31,1.7109881813247807
2026-09-01,1.714031240552252
2026-09-02,1.7099027305629177
2026-09-03,1.7112609399338843
2026-09-04,1.7155399199518013
2026-09-07,1.7092520284211814
2026-09-08,1.7085051743167765
2026-09-09,1.7080836473406897
2026-09-10,1.706714011940059
2026-09-11,1.7046268083171947
2026-09-14,1.7048960361575876
2026-09-15,1.7012211804254056
2026-09-16,1.6994632789740172
2026-09-17,1.6993163372988116
2026-09-18,1.6988001674532067
2026-09-21,1.7004887296691826
2026-09-22,1.7004739413707168
2026-09-23,1.699991474783704
2026-09-24,1.6993614410037934
