date,equity
2018-10-16,1.0
2018-10-17,1.0
2018-10-18,1.0
2018-10-19,1.0
2018-10-22,1.0
2018-10-23,1.0
2018-10-24,1.0
2018-10-25,1.0
2018-10-26,1.0
2018-10-29,1.0
2018-10-30,1.0
2018-10-31,1.0
2018-11-01,1.0
2018-11-02,1.0
2018-11-05,1.0
2018-11-06,1.0
2018-11-07,1.0
2018-11-08,1.0
2018-11-09,1.0
2018-11-12,1.0
2018-11-13,0.999578947368421
2018-11-14,0.9965572159554651
2018-11-15,1.0021816524642508
2018-11-16,1.0073866749003333
2018-11-19,1.0114385715619425
2018-11-20,0.9917482975362905
2018-11-21,1.0014181412520473
2018-11-22,0.9995365757311736
2018-11-23,0.9844716491211112
2018-11-26,0.9858249857862099
2018-11-27,0.9895951017151444
2018-11-28,0.9998999173131069
2018-11-29,0.9974999249910672
2018-11-30,1.0016639512179188
2018-12-03,1.033577006687094
2018-12-04,1.0338595778234219
2018-12-05,1.0507906177814943
2018-12-06,1.0221811805971504
2018-12-07,1.0233790204776425
2018-12-10,1.0144507055169834
2018-12-11,1.0160940052545846
2018-12-12,1.0185637516102959
2018-12-13,1.0303607730558635
2018-12-14,1.018028953101133
2018-12-17,1.014915085732803
2018-12-18,1.0106251646039264
2018-12-19,1.0023000749032136
2018-12-20,0.9951307797511038
2018-12-21,0.9890159138599618
2018-12-24,0.9898016277679211
2018-12-25,0.9881482535016651
2018-12-26,0.9885212650892086
2018-12-27,0.9881083004547156
2018-12-28,0.9892482214978574
2019-01-02,0.9883800727238459
2019-01-03,0.9881635371418759
2019-01-04,0.9873972918458943
2019-01-07,0.9899311598633238
2019-01-08,0.9902264732327024
2019-01-09,0.9901198078610945
2019-01-10,0.9917667642862263
2019-01-11,0.9924686542670638
2019-01-14,0.9892080768867068
2019-01-15,1.0042066322212948
2019-01-16,0.9983980231336959
2019-01-17,0.9951322095078372
2019-01-18,1.0249974184843655
2019-01-21,1.0368420679691497
2019-01-22,1.0124944062898433
2019-01-23,1.0194601795042482
2019-01-24,1.0373319175019633
2019-01-25,1.0499619050744504
2019-01-28,1.0574037644412788
2019-01-29,1.074023240970272
2019-01-30,1.062160332320988
2019-01-31,1.08626750136516
2019-02-01,1.1035427758469283
2019-02-11,1.1359316910548707
2019-02-12,1.1492356745218637
2019-02-13,1.1779608735961828
2019-02-14,1.1927574366354707
2019-02-15,1.1618005709146815
2019-02-18,1.2253011552241295
2019-02-19,1.2172811719824268
2019-02-20,1.2360038307626262
2019-02-21,1.2362571179136301
2019-02-22,1.2651064875043339
2019-02-25,1.3452592147002396
2019-02-26,1.320107506820679
2019-02-27,1.300773653835684
2019-02-28,1.3129477935514846
2019-03-01,1.3656374298190832
2019-03-04,1.3942306584131425
2019-03-05,1.4031405765614928
2019-03-06,1.4056230266931429
2019-03-07,1.3603933052508876
2019-03-08,1.297113729532009
2019-03-11,1.320150964605803
2019-03-12,1.3244179898883282
2019-03-13,1.3077637718528972
2019-03-14,1.3059989647325616
2019-03-15,1.324801613027606
2019-03-18,1.3610770997237056
2019-03-19,1.3480919672174412
2019-03-20,1.343637811099322
2019-03-21,1.339377611544951
2019-03-22,1.3426804339632754
2019-03-25,1.3009289202194096
2019-03-26,1.3023792182330864
2019-03-27,1.313669431843161
2019-03-28,1.318276930515744
2019-03-29,1.3423823115341424
2019-04-01,1.355395782475258
2019-04-02,1.3483419305932616
2019-04-03,1.358416393671115
2019-04-04,1.3714094403654364
2019-04-08,1.367396872992614
2019-04-09,1.3783265337458837
2019-04-10,1.3930873806545638
2019-04-11,1.3503842702554254
2019-04-12,1.3419399301450836
2019-04-15,1.3442607420538528
2019-04-16,1.3693128186921155
2019-04-17,1.38679020916905
2019-04-18,1.3851990258161524
2019-04-19,1.4000363747109081
2019-04-22,1.3757982074028101
2019-04-23,1.3747555778242422
2019-04-24,1.3789124825634997
2019-04-25,1.3647575328733448
2019-04-26,1.3490977060920757
2019-04-29,1.3616840161511754
2019-04-30,1.357944432526639
2019-05-06,1.33081191886036
2019-05-07,1.3378687223316486
2019-05-08,1.334091456043612
2019-05-09,1.3339724594005269
2019-05-10,1.3409870389792775
2019-05-13,1.3396996438445725
2019-05-14,1.3397236420576002
2019-05-15,1.3447671834069985
2019-05-16,1.3444072583391975
2019-05-17,1.3360457497025846
2019-05-20,1.3291171058563813
2019-05-21,1.3308572289853227
2019-05-22,1.3299987360514511
2019-05-23,1.3251764906536485
2019-05-24,1.3250900285766931
2019-05-27,1.3265522180379772
2019-05-28,1.3288679058996071
2019-05-29,1.3273209740081109
2019-05-30,1.328165778067567
2019-05-31,1.3276413945720213
2019-06-03,1.3281791441111979
2019-06-04,1.3254041203812912
2019-06-05,1.3272885441296358
2019-06-06,1.3187347806848235
2019-06-10,1.3275915968158063
2019-06-11,1.338561420524486
2019-06-12,1.3358352662895472
2019-06-13,1.3283605334561681
2019-06-14,1.3251421275635142
2019-06-17,1.3278065070805274
2019-06-18,1.3303042321458065
2019-06-19,1.34109351085523
2019-06-20,1.3840059416418242
2019-06-21,1.3833749506920283
2019-06-24,1.392325842134471
2019-06-25,1.3837240569584726
2019-06-26,1.3840624898059872
2019-06-27,1.413658234898034
2019-06-28,1.414942032350498
2019-07-01,1.461358081096761
2019-07-02,1.4665387026986945
2019-07-03,1.446042054827868
2019-07-04,1.4317870867688232
2019-07-05,1.4497776889332288
2019-07-08,1.4084139140851648
2019-07-09,1.4080600313100993
2019-07-10,1.410808266280739
2019-07-11,1.4047322918878469
2019-07-12,1.4112597453943359
2019-07-15,1.4154128049382244
2019-07-16,1.4026998556134433
2019-07-17,1.4058915254325182
2019-07-18,1.3984824274272811
2019-07-19,1.4047469762905418
2019-07-22,1.406889804201768
2019-07-23,1.4154957595580568
2019-07-24,1.42019835781049
2019-07-25,1.4313647273172359
2019-07-26,1.437962551139829
2019-07-29,1.4384416369076807
2019-07-30,1.4380563871523235
2019-07-31,1.430653863840843
2019-08-01,1.4270983126183372
2019-08-02,1.4171571390552704
2019-08-05,1.397887477078975
2019-08-06,1.3941662795603895
2019-08-07,1.3940122553502412
2019-08-08,1.3975928464909324
2019-08-09,1.391035315782293
2019-08-12,1.3968432341318848
2019-08-13,1.3974466539568737
2019-08-14,1.3983190286548846
2019-08-15,1.4017435043713613
2019-08-16,1.4032656769251695
2019-08-19,1.413267632033566
2019-08-20,1.4173616258858457
2019-08-21,1.4130326742564217
2019-08-22,1.4151278581761373
2019-08-23,1.4230950541038074
2019-08-26,1.4100208093199862
2019-08-27,1.428130464328952
2019-08-28,1.429374223804809
2019-08-29,1.4242824837161578
2019-08-30,1.4312857053801662
2019-09-02,1.4512799231694524
2019-09-03,1.4527195797182557
2019-09-04,1.4504858834001368
2019-09-05,1.4562068299951618
2019-09-06,1.4610549566959388
2019-09-09,1.4623825927580143
2019-09-10,1.454075806614733
2019-09-11,1.4366958512828787
2019-09-12,1.4424412931782526
2019-09-16,1.4377884941088046
2019-09-17,1.417104898827062
2019-09-18,1.416292012775181
2019-09-19,1.418892305461013
2019-09-20,1.4233035649401853
2019-09-23,1.4099898164852813
2019-09-24,1.4134308138182141
2019-09-25,1.4077042435442513
2019-09-26,1.4030843482826427
2019-09-27,1.4050129838598004
2019-09-30,1.400472358260996
2019-10-08,1.4031249141831195
2019-10-09,1.4024769118130014
2019-10-10,1.4044901382470747
2019-10-11,1.4088112359312766
2019-10-14,1.4117312100185708
2019-10-15,1.4178460939325963
2019-10-16,1.4158556670089555
2019-10-17,1.4169804865550808
2019-10-18,1.4090703363248553
2019-10-21,1.4159129821127514
2019-10-22,1.4186511200420826
2019-10-23,1.4147375595705405
2019-10-24,1.4150579329873996
2019-10-25,1.4238208591844097
2019-10-28,1.4234750269133123
2019-10-29,1.424424974246463
2019-10-30,1.4238515866551333
2019-10-31,1.4227962919879245
2019-11-01,1.441911637215073
2019-11-04,1.4509602650423803
2019-11-05,1.462091211157447
2019-11-06,1.4646328479348578
2019-11-07,1.466020593361232
2019-11-08,1.4682537358784706
2019-11-11,1.4478605174176096
2019-11-12,1.448399499996491
2019-11-13,1.45734539016218
2019-11-14,1.4564999984120046
2019-11-15,1.4501001614256763
2019-11-18,1.4504257386861301
2019-11-19,1.4657535767447611
2019-11-20,1.4557112338016431
2019-11-21,1.453508760745781
2019-11-22,1.4424664825222888
2019-11-25,1.4510342272227634
2019-11-26,1.4530801227049344
2019-11-27,1.4466281891665667
2019-11-28,1.4446540197390723
2019-11-29,1.4392747141210915
2019-12-02,1.4488299350025238
2019-12-03,1.4540796549081951
2019-12-04,1.4527394536944804
2019-12-05,1.4580262239697197
2019-12-06,1.4639729081671657
2019-12-09,1.4693537570681436
2019-12-10,1.4751951211070713
2019-12-11,1.4705657842041269
2019-12-12,1.4644352508541594
2019-12-13,1.478470265843186
2019-12-16,1.4796289428122746
2019-12-17,1.4925878948847928
2019-12-18,1.485652378264291
2019-12-19,1.487254699607234
2019-12-20,1.484937435444599
2019-12-23,1.469540135279597
2019-12-24,1.4863738258176153
2019-12-25,1.4906421665076481
2019-12-26,1.5008242791871766
2019-12-27,1.5015935064731802
2019-12-30,1.5244196150125264
2019-12-31,1.5269479714032879
2020-01-02,1.5552820756493502
2020-01-03,1.5532645534229759
2020-01-06,1.547286952953373
2020-01-07,1.5532400489944798
2020-01-08,1.5386156286171486
2020-01-09,1.5535015070535114
2020-01-10,1.549444062322718
2020-01-13,1.5654947044667533
2020-01-14,1.5603129637043534
2020-01-15,1.553030542640208
2020-01-16,1.550403209214164
2020-01-17,1.5537389536043467
2020-01-20,1.5668081324993635
2020-01-21,1.5415311076464537
2020-01-22,1.55268389265838
2020-01-23,1.5346646513115403
2020-02-03,1.5087691000638594
2020-02-04,1.5312361211634655
2020-02-05,1.5506007014398109
2020-02-06,1.558604351350073
2020-02-07,1.5514300940833778
2020-02-10,1.5553456696774806
2020-02-11,1.5537928032572885
2020-02-12,1.562489768591184
2020-02-13,1.5630893790494647
2020-02-14,1.56288656544558
2020-02-17,1.5795508666884461
2020-02-18,1.580898165188658
2020-02-19,1.5785079495904097
2020-02-20,1.6008411704381096
2020-02-21,1.6066964454104806
2020-02-24,1.608214000429861
2020-02-25,1.6194326173612772
2020-02-26,1.5869456515991405
2020-02-27,1.58921315224666
2020-02-28,1.5562308381931866
2020-03-02,1.5794536538781014
2020-03-03,1.5784185461487448
2020-03-04,1.578058859080216
2020-03-05,1.5948249268512051
2020-03-06,1.569460465861782
2020-03-09,1.5254283450362371
2020-03-10,1.5363942897481155
2020-03-11,1.5246896487602468
2020-03-12,1.51426490094681
2020-03-13,1.5102156487727074
2020-03-16,1.4998599620293211
2020-03-17,1.4998204920303204
2020-03-18,1.4989534129278639
2020-03-19,1.5008287397491418
2020-03-20,1.5004053232540335
2020-03-23,1.497965543044706
2020-03-24,1.4979261228988365
2020-03-25,1.4987549806783063
2020-03-26,1.5030032879888828
2020-03-27,1.500585882772754
2020-03-30,1.5006143585519052
2020-03-31,1.4940059614471335
2020-04-01,1.4833037638034563
2020-04-02,1.491692331139537
2020-04-03,1.4904253317971126
2020-04-07,1.5013499410188926
2020-04-08,1.4989841698716881
2020-04-09,1.4958005436855881
2020-04-10,1.487323935206475
2020-04-13,1.4873942562931186
2020-04-14,1.5146577815377424
2020-04-15,1.4956014404523903
2020-04-16,1.502403474111831
2020-04-17,1.5164234868111859
2020-04-20,1.5203569044782241
2020-04-21,1.5017488819712927
2020-04-22,1.5156836783296725
2020-04-23,1.516485109665121
2020-04-24,1.5097953657096232
2020-04-27,1.5103519896710895
2020-04-28,1.53995211034078
2020-04-29,1.5367216502523564
2020-04-30,1.551837141306673
2020-05-06,1.554018602066269
2020-05-07,1.548742850293751
2020-05-08,1.557363251155274
2020-05-11,1.55193625151128
2020-05-12,1.561624928670018
2020-05-13,1.5643884482274963
2020-05-14,1.5464337207103036
2020-05-15,1.5430155657139308
2020-05-18,1.546644506781343
2020-05-19,1.5721262690693176
2020-05-20,1.5641028920811426
2020-05-21,1.5542680780819145
2020-05-22,1.5248922607649094
2020-05-25,1.5390273642316845
2020-05-26,1.545560759807929
2020-05-27,1.5534550996473078
2020-05-28,1.5500866848449948
2020-05-29,1.5579324777525354
2020-06-01,1.578732480781949
2020-06-02,1.5741913117144113
2020-06-03,1.5755531510042313
2020-06-04,1.567894357638196
2020-06-05,1.5803607008095326
2020-06-08,1.593942906658488
2020-06-09,1.6093793650553103
2020-06-10,1.6046439653796558
2020-06-11,1.5893915326393864
2020-06-12,1.5883727153165959
2020-06-15,1.569039041696999
2020-06-16,1.5833619311029805
2020-06-17,1.5813952758013703
2020-06-18,1.5893883334033685
2020-06-19,1.611420603513375
2020-06-22,1.614045288769157
2020-06-23,1.633653319533039
2020-06-24,1.6463570291760854
2020-06-29,1.6516693650556846
2020-06-30,1.6738193716032324
2020-07-01,1.702209825327254
2020-07-02,1.723635422440542
2020-07-03,1.7514275710299543
2020-07-06,1.8832487602226595
2020-07-07,1.8968513551211224
2020-07-08,1.9212435872406626
2020-07-09,1.9608091153504585
2020-07-10,1.9188861721290986
2020-07-13,1.9826862703448516
2020-07-14,1.9633289828827132
2020-07-15,1.9606096599909066
2020-07-16,1.8329832571042488
2020-07-17,1.8516538210812383
2020-07-20,1.8994363847800373
2020-07-21,1.9198090636342486
2020-07-22,1.927604551679543
2020-07-23,1.9467284235652615
2020-07-24,1.8798240349834483
2020-07-27,1.903122787874416
2020-07-28,1.903503408329144
2020-07-29,1.927572560426792
2020-07-30,1.9405337293727696
2020-07-31,1.954083856597767
2020-08-03,1.9695437832385803
2020-08-04,1.9602431141673684
2020-08-05,1.971009994118088
2020-08-06,1.9582783410536917
2020-08-07,1.9582800889886938
2020-08-10,1.9546827302608156
2020-08-11,1.9339997527073418
2020-08-12,1.9143862083626344
2020-08-13,1.9156250992107566
2020-08-14,1.9221665881894991
2020-08-17,1.9370188965181778
2020-08-18,1.9314551205562525
2020-08-19,1.9174165842706383
2020-08-20,1.8975730181261057
2020-08-21,1.90089959012167
2020-08-24,1.9112927909943973
2020-08-25,1.9132085464751947
2020-08-26,1.906770875306787
2020-08-27,1.904259961661638
2020-08-28,1.9237357572792808
2020-08-31,1.9265417010411634
2020-09-01,1.9304586478919346
2020-09-02,1.928903880532696
2020-09-03,1.932633552853502
2020-09-04,1.9209025420957444
2020-09-07,1.89843664045612
2020-09-08,1.9041137232051062
2020-09-09,1.8832291417475857
2020-09-10,1.8921787854706664
2020-09-11,1.9003999899343238
2020-09-14,1.9078269297360482
2020-09-15,1.916482735378321
2020-09-16,1.9211564925263216
2020-09-17,1.9214915975065745
2020-09-18,1.9353788787783812
2020-09-21,1.9204158596287249
2020-09-22,1.9050166314043782
2020-09-23,1.9077328987594537
2020-09-24,1.8817405059602668
2020-09-25,1.8781613739770366
2020-09-28,1.885632719559158
2020-09-29,1.8867340766661274
2020-09-30,1.8945983333588718
2020-10-09,1.919711784081092
2020-10-12,1.9489170859821328
2020-10-13,1.9728723762717602
2020-10-14,1.9636331250068266
2020-10-15,1.955749741225627
2020-10-16,1.9493164716247082
2020-10-19,1.932227611474878
2020-10-20,1.9612457120862121
2020-10-21,1.957470201813254
2020-10-22,1.9611431742864494
2020-10-23,1.9335111736396555
2020-10-26,1.9386291035404444
2020-10-27,1.937770556708263
2020-10-28,1.9517401079402759
2020-10-29,1.9685042943420832
2020-10-30,1.9537351382266037
2020-11-02,1.989010231554459
2020-11-03,2.000159252029939
2020-11-04,2.016926235772498
2020-11-05,2.0391475675170523
2020-11-06,2.0556283979074514
2020-11-09,2.0715913084756066
2020-11-10,2.0688451221409845
2020-11-11,2.050404864995679
2020-11-12,2.0519073987575296
2020-11-13,2.023304097608654
2020-11-16,2.049503437877752
2020-11-17,2.0400834141114936
2020-11-18,2.033024742727636
2020-11-19,2.040546805896782
2020-11-20,2.0456412917417115
2020-11-23,2.0679606767477297
2020-11-24,2.0551238304618535
2020-11-25,2.037015553725054
2020-11-26,2.0461807862109187
2020-11-27,2.0698044571220606
2020-11-30,2.066948681580375
2020-12-01,2.0927822730319203
2020-12-02,2.092124628788167
2020-12-03,2.0736110878647613
2020-12-04,2.0675873660763284
2020-12-07,2.0448872353274643
2020-12-08,2.040832820890975
2020-12-09,2.025936351498076
2020-12-10,2.030494371448949
2020-12-11,2.029183364782553
2020-12-14,2.03756201868152
2020-12-15,2.0421354888808008
2020-12-16,2.0518759329211664
2020-12-17,2.067966996811054
2020-12-18,2.0664770087874302
2020-12-21,2.0942582660767277
2020-12-22,2.0874252541963814
2020-12-23,2.104026950467519
2020-12-24,2.0981147509679614
2020-12-25,2.1159520350471204
2020-12-28,2.130993393687958
2020-12-29,2.106062809437
2020-12-30,2.1459024401471756
2020-12-31,2.177546894849888
2021-01-04,2.2249040098402593
2021-01-05,2.2807321353592473
2021-01-06,2.2896504294177245
2021-01-07,2.3501288234762905
2021-01-08,2.327695699965129
2021-01-11,2.3062680838919936
2021-01-12,2.3763301872868006
2021-01-13,2.3593579585765334
2021-01-14,2.295863982817532
2021-01-15,2.297023880210491
2021-01-18,2.3191858517157615
2021-01-19,2.2799421177442922
2021-01-20,2.293227462632336
2021-01-21,2.3231745847062255
2021-01-22,2.3164399989254636
2021-01-25,2.326084996031871
2021-01-26,2.2845404078278317
2021-01-27,2.305278635402886
2021-01-28,2.2642969454163633
2021-01-29,2.2516280569730416
2021-02-01,2.255010326822361
2021-02-02,2.264603319724206
2021-02-03,2.2728886305969636
2021-02-04,2.2714911734942076
2021-02-05,2.2792981611569587
2021-02-08,2.2947144196442486
2021-02-09,2.311261895470168
2021-02-10,2.362090260172054
2021-02-18,2.3508549755332835
2021-02-19,2.3350446134366645
2021-02-22,2.2924994078099736
2021-02-23,2.281868505792794
2021-02-24,2.2488990550651606
2021-02-25,2.278831172169108
2021-02-26,2.234019586568079
2021-03-01,2.243459344434637
2021-03-02,2.233432740024958
2021-03-03,2.253771901086508
2021-03-04,2.238606928131795
2021-03-05,2.2338723131499605
2021-03-08,2.230821990177487
2021-03-09,2.2280457401537515
2021-03-10,2.2193042938749734
2021-03-11,2.2308643861227377
2021-03-12,2.2404020258645945
2021-03-15,2.2497621604842117
2021-03-16,2.2480755435624933
2021-03-17,2.2370596840072188
2021-03-18,2.2356251997492347
2021-03-19,2.2237469408630695
2021-03-22,2.2305808082975744
2021-03-23,2.222860013761916
2021-03-24,2.222081670543857
2021-03-25,2.223486456083807
2021-03-26,2.2224101194349797
2021-03-29,2.226672717392114
2021-03-30,2.2300293707671757
2021-03-31,2.2262814217614117
2021-04-01,2.231462179548154
2021-04-02,2.2407175294490576
2021-04-06,2.2242480199092096
2021-04-07,2.206402664790852
2021-04-08,2.212914169243341
2021-04-09,2.1903410234249874
2021-04-12,2.182498526515132
2021-04-13,2.1778455058625825
2021-04-14,2.1822128250299127
2021-04-15,2.178878886341051
2021-04-16,2.1833866099223083
2021-04-19,2.208658695447462
2021-04-20,2.210768018374808
2021-04-21,2.2112685334183597
2021-04-22,2.2148285303040467
2021-04-23,2.2304056844635154
2021-04-26,2.2187568941731293
2021-04-27,2.224497578455124
2021-04-28,2.249192371386043
2021-04-29,2.2649325890467256
2021-04-30,2.271782793411138
2021-05-06,2.2506266096412118
2021-05-07,2.226455482022833
2021-05-10,2.239269197960413
2021-05-11,2.236583065256971
2021-05-12,2.244583011492948
2021-05-13,2.2318870968623146
2021-05-14,2.2433142441938307
2021-05-17,2.2608148721191164
2021-05-18,2.2610378311066563
2021-05-19,2.2535217799263574
2021-05-20,2.2430510199227056
2021-05-21,2.2366637517548895
2021-05-24,2.244602467394761
2021-05-25,2.2734483716090175
2021-05-26,2.275760025173279
2021-05-27,2.2740037180322354
2021-05-28,2.2796405627284417
2021-05-31,2.2858132766289456
2021-06-01,2.28777047259502
2021-06-02,2.2677860165546395
2021-06-03,2.259803974027566
2021-06-04,2.2697961938199134
2021-06-07,2.266495378174634
2021-06-08,2.2564174288334864
2021-06-09,2.2607849433231553
2021-06-10,2.2758654226935673
2021-06-11,2.2761081759095
2021-06-15,2.2718045463720973
2021-06-16,2.240751324414516
2021-06-17,2.2500148906803834
2021-06-18,2.254386415136327
2021-06-21,2.25227929072986
2021-06-22,2.250072387551019
2021-06-23,2.255385102413071
2021-06-24,2.2600244882834515
2021-06-25,2.263506354303405
2021-06-28,2.2715397555992336
2021-06-29,2.2692828327222085
2021-06-30,2.2744832127231525
2021-07-01,2.266360750869189
2021-07-02,2.2387139704538312
2021-07-05,2.2484331202122085
2021-07-06,2.2399613171785133
2021-07-07,2.2535735305876745
2021-07-08,2.2516056319313695
2021-07-09,2.252866870362764
2021-07-12,2.2596785815266136
2021-07-13,2.2505452732250357
2021-07-14,2.2290236475655423
2021-07-15,2.239330028934818
2021-07-16,2.2247255753795967
2021-07-19,2.2270173194895753
2021-07-20,2.2259861003632158
2021-07-21,2.2420053642587896
2021-07-22,2.2372730251841597
2021-07-23,2.23456725700852
2021-07-26,2.2134416770342495
2021-07-27,2.1925783159947296
2021-07-28,2.185939028147952
2021-07-29,2.193477871472237
2021-07-30,2.198314487180816
2021-08-02,2.2113951638198164
2021-08-03,2.208284971600918
2021-08-04,2.224382674029521
2021-08-05,2.224355147092064
2021-08-06,2.2208331562592285
2021-08-09,2.2242229358364622
2021-08-10,2.222973183490042
2021-08-11,2.2182145365721264
2021-08-12,2.2227482427971825
2021-08-13,2.218474118582262
2021-08-16,2.2226066130424282
2021-08-17,2.2080153241437257
2021-08-18,2.2211772847458504
2021-08-19,2.198764382331957
2021-08-20,2.195767639677981
2021-08-23,2.196635873278528
2021-08-24,2.197560112125035
2021-08-25,2.200395138113769
2021-08-26,2.194298744639666
2021-08-27,2.201903915935314
2021-08-30,2.2082132788105224
2021-08-31,2.227964792413611
2021-09-01,2.2224484424970954
2021-09-02,2.238825983721021
2021-09-03,2.2323768881983432
2021-09-06,2.2407548145181266
2021-09-07,2.252985241978774
2021-09-08,2.250465132447152
2021-09-09,2.276438332729533
2021-09-10,2.27916656338635
2021-09-13,2.290123448661668
2021-09-14,2.2559853888874044
2021-09-15,2.2353763608194104
2021-09-16,2.2235567885642613
2021-09-17,2.2236494284526747
2021-09-22,2.2470453203868215
2021-09-23,2.242713314820881
2021-09-24,2.23570666873039
2021-09-27,2.2410044056351563
2021-09-28,2.2471777410093177
2021-09-29,2.24246870445114
2021-09-30,2.2505804348662033
2021-10-08,2.269586100082817
2021-10-11,2.2684254739846437
2021-10-12,2.2644259182312245
2021-10-13,2.2726422511355353
2021-10-14,2.262611319190451
2021-10-15,2.264252035455948
2021-10-18,2.229804178992023
2021-10-19,2.2338375988932238
2021-10-20,2.2291325641412065
2021-10-21,2.223545763077926
2021-10-22,2.2405513443355254
2021-10-25,2.243651063183205
2021-10-26,2.2345866695051733
2021-10-27,2.216738703803343
2021-10-28,2.2125935726628736
2021-10-29,2.2290733184973397
2021-11-01,2.2261394191812345
2021-11-02,2.2185874284171234
2021-11-03,2.202893086124568
2021-11-04,2.2125730479316568
2021-11-05,2.2099246679114106
2021-11-08,2.2075200103159
2021-11-09,2.203041040321721
2021-11-10,2.1949748170750882
2021-11-11,2.1978018967885453
2021-11-12,2.1933912707862135
2021-11-15,2.1882353960914838
2021-11-16,2.1870669487410903
2021-11-17,2.1826238676943066
2021-11-18,2.1746450608774133
2021-11-19,2.1878057641941315
2021-11-22,2.1812953737509253
2021-11-23,2.181069767172851
2021-11-24,2.18056599558661
2021-11-25,2.1757828393402003
2021-11-26,2.16488910757453
2021-11-29,2.166739713377675
2021-11-30,2.1620597186472015
2021-12-01,2.166224134661874
2021-12-02,2.173823598120786
2021-12-03,2.1939619028890385
2021-12-06,2.1897593137993216
2021-12-07,2.192346266745797
2021-12-08,2.199891994355094
2021-12-09,2.219597982414551
2021-12-10,2.207830153387743
2021-12-13,2.2216272920144244
2021-12-14,2.2008612461078814
2021-12-15,2.187725883184484
2021-12-16,2.201734587511996
2021-12-17,2.1761905127222905
2021-12-20,2.16684145175335
2021-12-21,2.177383259376545
2021-12-22,2.1746283548277856
2021-12-23,2.1840900397722502
2021-12-24,2.18394384910261
2021-12-27,2.183294246514725
2021-12-28,2.1823238386456083
2021-12-29,2.1626180913354047
2021-12-30,2.1646505775265026
2021-12-31,2.1696216884891064
2022-01-04,2.180127379857975
2022-01-05,2.1764533144696863
2022-01-06,2.1658673365843053
2022-01-07,2.1854654710650268
2022-01-10,2.1929868474765235
2022-01-11,2.1838431153755025
2022-01-12,2.17544569800299
2022-01-13,2.1628502857188945
2022-01-14,2.1410087359288026
2022-01-17,2.1390277584168476
2022-01-18,2.1430758307022537
2022-01-19,2.14378705572653
2022-01-20,2.153591168899672
2022-01-21,2.143087816017147
2022-01-24,2.1387787044070836
2022-01-25,2.1233632230481767
2022-01-26,2.1235868472931467
2022-01-27,2.116074607434528
2022-01-28,2.1052991712060196
2022-02-07,2.1110377056128558
2022-02-08,2.1156932075606654
2022-02-09,2.115745271300992
2022-02-10,2.136787333077136
2022-02-11,2.145546509879377
2022-02-14,2.1266155956941906
2022-02-15,2.113348579859151
2022-02-16,2.116494725081083
2022-02-17,2.118929751566381
2022-02-18,2.128938288980788
2022-02-21,2.125884134199101
2022-02-22,2.119152334308609
2022-02-23,2.1066485783275417
2022-02-24,2.095066411010616
2022-02-25,2.0897696029391364
2022-02-28,2.0953692470205922
2022-03-01,2.097303318180369
2022-03-02,2.1004877549947065
2022-03-03,2.102659376196109
2022-03-04,2.0992857529119506
2022-03-07,2.090341522729503
2022-03-08,2.0784600070870876
2022-03-09,2.0807089063002446
2022-03-10,2.082082527851609
2022-03-11,2.0833949808051018
2022-03-14,2.0781988553314945
2022-03-15,2.0643134830473486
2022-03-16,2.072699988423672
2022-03-17,2.075518220774717
2022-03-18,2.076372952159199
2022-03-21,2.0829201185162365
2022-03-22,2.0820594736841236
2022-03-23,2.077372637883639
2022-03-24,2.076106899360082
2022-03-25,2.0712038141586944
2022-03-28,2.0713661959982033
2022-03-29,2.0793914930787376
2022-03-30,2.079569639197079
2022-03-31,2.079441388003521
2022-04-01,2.086127815290052
2022-04-06,2.095733134023266
2022-04-07,2.080030495224616
2022-04-08,2.093310789654259
2022-04-11,2.0744561736237177
2022-04-12,2.07452879915751
2022-04-13,2.0765200298765327
2022-04-14,2.0924669043205264
2022-04-15,2.0888198952405825
2022-04-18,2.0616937669110476
2022-04-19,2.0564080361734653
2022-04-20,2.0385839343942007
2022-04-21,2.027130380031536
2022-04-22,2.031867728984455
2022-04-25,2.0027711368736045
2022-04-26,2.005428582706537
2022-04-27,2.0058651049968326
2022-04-28,2.006502174341588
2022-04-29,2.0167135962843097
2022-05-05,2.0098958054027443
2022-05-06,1.9875832763426624
2022-05-09,1.979760402067264
2022-05-10,1.9846408844469654
2022-05-11,1.983294386265299
2022-05-12,1.9847031421713746
2022-05-13,1.9937653669664879
2022-05-16,1.9871446014173306
2022-05-17,1.9991270864961839
2022-05-18,2.0002817343630412
2022-05-19,2.0097402586406683
2022-05-20,2.017015115763912
2022-05-23,2.010537271614728
2022-05-24,1.9943556253968877
2022-05-25,2.000960419709534
2022-05-26,1.9985245679055879
2022-05-27,1.9991549724256217
2022-05-30,1.9996358062653783
2022-05-31,2.008275743241284
2022-06-01,2.00297746452345
2022-06-02,2.0125340398510394
2022-06-06,2.039434922672002
2022-06-07,2.0375404103434716
2022-06-08,2.060304511928057
2022-06-09,2.0348423787983294
2022-06-10,2.0591705575211234
2022-06-13,2.0336343013089464
2022-06-14,2.0506678037538664
2022-06-15,2.065234295808601
2022-06-16,2.0495520173196278
2022-06-17,2.066895304699162
2022-06-20,2.07880562971103
2022-06-21,2.0831521585171773
2022-06-22,2.0582075650338822
2022-06-23,2.0834123617008333
2022-06-24,2.107546778437988
2022-06-27,2.133772961831837
2022-06-28,2.152725390070889
2022-06-29,2.12306128088947
2022-06-30,2.1595358983392345
2022-07-01,2.1500993517835854
2022-07-04,2.16776043260829
2022-07-05,2.161169705566506
2022-07-06,2.1187515292360812
2022-07-07,2.1134233666439983
2022-07-08,2.1195219109441226
2022-07-11,2.1073291633962343
2022-07-12,2.1047334684870393
2022-07-13,2.101912474370055
2022-07-14,2.0954884182649898
2022-07-15,2.07500606758039
2022-07-18,2.082712654465314
2022-07-19,2.0774285933967875
2022-07-20,2.076030450752143
2022-07-21,2.0760660372099022
2022-07-22,2.0761217926321156
2022-07-25,2.077046405851988
2022-07-26,2.0715433277886968
2022-07-27,2.069863208777908
2022-07-28,2.0689453894606964
2022-07-29,2.068531180942202
2022-08-01,2.0699304060841475
2022-08-02,2.0685731733767074
2022-08-03,2.0671133636194963
2022-08-04,2.0699300253251494
2022-08-05,2.0713264699148195
2022-08-08,2.0714129804019423
2022-08-09,2.0714013984292547
2022-08-10,2.0677857153026533
2022-08-11,2.077952275258117
2022-08-12,2.075176340408924
2022-08-15,2.066672435202415
2022-08-16,2.065436312037104
2022-08-17,2.0717818422810486
2022-08-18,2.0650736882458287
2022-08-19,2.059874629707312
2022-08-22,2.0652845161063125
2022-08-23,2.063762920416994
2022-08-24,2.0549918350507856
2022-08-25,2.0642000466653307
2022-08-26,2.0594914517400706
2022-08-29,2.057984269215496
2022-08-30,2.054686588525822
2022-08-31,2.055992321751346
2022-09-01,2.0528494147667686
2022-09-02,2.0464074822606046
2022-09-05,2.0549267781502962
2022-09-06,2.057738461014554
2022-09-07,2.052631558766097
2022-09-08,2.054780265160685
2022-09-09,2.07193277365397
2022-09-13,2.07743122755996
2022-09-14,2.067583608285287
2022-09-15,2.0746695843550067
2022-09-16,2.0443266961472673
2022-09-19,2.04982768102756
2022-09-20,2.0411922145446106
2022-09-21,2.03952919765147
2022-09-22,2.037330153622312
2022-09-23,2.038692810099874
2022-09-26,2.0365217510495013
2022-09-27,2.042806484298788
2022-09-28,2.040821984528517
2022-09-29,2.037629168288504
2022-09-30,2.0365339787468986
2022-10-10,2.0227329180284914
2022-10-11,2.0221371945918207
2022-10-12,2.0216855219008507
2022-10-13,2.018984686423793
2022-10-14,2.0284955980671953
2022-10-17,2.029290346487371
2022-10-18,2.0285169397210137
2022-10-19,2.025372183981721
2022-10-20,2.026100179991677
2022-10-21,2.027269879204807
2022-10-24,2.0177567313888534
2022-10-25,2.0153014671706844
2022-10-26,2.0233076078102856
2022-10-27,2.02378946168058
2022-10-28,2.0155454050230186
2022-10-31,2.018554896858735
2022-11-01,2.025577058022887
2022-11-02,2.031300532465643
2022-11-03,2.026110833703461
2022-11-04,2.0406108484137424
2022-11-07,2.0431035181800947
2022-11-08,2.037404595987596
2022-11-09,2.0338485576860874
2022-11-10,2.0245573178324814
2022-11-11,2.038652915756424
2022-11-14,2.049671648414944
2022-11-15,2.0812982581715262
2022-11-16,2.069801495310532
2022-11-17,2.0604420069379596
2022-11-18,2.054511636321216
2022-11-21,2.0303476024500404
2022-11-22,2.040528296637009
2022-11-23,2.0379279657859986
2022-11-24,2.032118664076687
2022-11-25,2.053070044260385
2022-11-28,2.0277990766586544
2022-11-29,2.0759397653218716
2022-11-30,2.06933937639825
2022-12-01,2.0830821249510825
2022-12-02,2.0652678596334444
2022-12-05,2.1202929178286425
2022-12-06,2.12727018485387
2022-12-07,2.115989154583093
2022-12-08,2.1169998613766947
2022-12-09,2.1542214451664528
2022-12-12,2.124569153216408
2022-12-13,2.12793988858528
2022-12-14,2.144199581487608
2022-12-15,2.1294173622287995
2022-12-16,2.137972663708555
2022-12-19,2.1122138105189863
2022-12-20,2.0794990516652514
2022-12-21,2.0873504506576745
2022-12-22,2.093916850571701
2022-12-23,2.096572473835143
2022-12-26,2.0881185825433546
2022-12-27,2.0967248486427192
2022-12-28,2.0919519201819576
2022-12-29,2.0880415304029856
2022-12-30,2.090438471064945
2023-01-03,2.085117076728356
2023-01-04,2.085504428692273
2023-01-05,2.0880380991711576
2023-01-06,2.0862980856874116
2023-01-09,2.1026030840040573
2023-01-10,2.09917365085173
2023-01-11,2.1006442194512784
2023-01-12,2.0966800046740617
2023-01-13,2.1220781689545154
2023-01-16,2.155457521850322
2023-01-17,2.148884528651154
2023-01-18,2.137855636895363
2023-01-19,2.150443955950421
2023-01-20,2.1591313821159788
2023-01-30,2.154804696328587
2023-01-31,2.1350935919325824
2023-02-01,2.1566919157497253
2023-02-02,2.145229452429895
2023-02-03,2.1234143286466813
2023-02-06,2.1033302354200094
2023-02-07,2.1051065959352844
2023-02-08,2.100818040276173
2023-02-09,2.1098355225239556
2023-02-10,2.1012700388290817
2023-02-13,2.1070888306763464
2023-02-14,2.108600233166319
2023-02-15,2.1074274356529803
2023-02-16,2.1032806036287037
2023-02-17,2.0987069349673573
2023-02-20,2.117072367779144
2023-02-21,2.1194539410628415
2023-02-22,2.1149297938108518
2023-02-23,2.1159364170574886
2023-02-24,2.1041097972372493
2023-02-27,2.099085460790009
2023-02-28,2.1041871192195187
2023-03-01,2.1166848661773257
2023-03-02,2.120533328872993
2023-03-03,2.1302922647484555
2023-03-06,2.12424974959516
2023-03-07,2.1186162462838936
2023-03-08,2.1159784698060635
2023-03-09,2.1132064921213685
2023-03-10,2.1047716556637313
2023-03-13,2.120182625100883
2023-03-14,2.1158500926331274
2023-03-15,2.1202393733845692
2023-03-16,2.1108032788978037
2023-03-17,2.117079008867244
2023-03-20,2.114824820832203
2023-03-21,2.1129156839029966
2023-03-22,2.1167002252477545
2023-03-23,2.1212499122057196
2023-03-24,2.113132884640669
2023-03-27,2.1014088526758514
2023-03-28,2.0992527854353966
2023-03-29,2.101380786687989
2023-03-30,2.102467695559731
2023-03-31,2.1010885190550437
2023-04-03,2.098170597112004
2023-04-04,2.108971154882418
2023-04-06,2.112027982850039
2023-04-07,2.121982063500597
2023-04-10,2.125240912256672
2023-04-11,2.127504075348151
2023-04-12,2.135813281856664
2023-04-13,2.121273070818405
2023-04-14,2.127567579336902
2023-04-17,2.1401638924056146
2023-04-18,2.1451466875946235
2023-04-19,2.132181358492001
2023-04-20,2.1304791428167684
2023-04-21,2.1045540277361567
2023-04-24,2.0984642775513445
2023-04-25,2.100792727521343
2023-04-26,2.0946846162159467
2023-04-27,2.096585852674876
2023-04-28,2.0992896374331846
2023-05-04,2.1009599040191747
2023-05-05,2.0906216616367117
2023-05-08,2.110173983033571
2023-05-09,2.101956248034107
2023-05-10,2.087671234500148
2023-05-11,2.087769586604377
2023-05-12,2.0802164192021246
2023-05-15,2.087717411724525
2023-05-16,2.0870277633163727
2023-05-17,2.082363643743657
2023-05-18,2.0824679608764267
2023-05-19,2.078174924012305
2023-05-22,2.082031949137413
2023-05-23,2.072863043189595
2023-05-24,2.066904254283906
2023-05-25,2.064373604248126
2023-05-26,2.0629544129877275
2023-05-29,2.0643368876345356
2023-05-30,2.0637065730053243
2023-05-31,2.0630084273591067
2023-06-01,2.0638591285410324
2023-06-02,2.062176383842307
2023-06-05,2.0601852702609533
2023-06-06,2.054693272184427
2023-06-07,2.0559835567762197
2023-06-08,2.057647389180125
2023-06-09,2.056702793302372
2023-06-12,2.057856940323778
2023-06-13,2.0574274254203386
2023-06-14,2.059998019972669
2023-06-15,2.068497707300574
2023-06-16,2.0764057567032213
2023-06-19,2.059769657180009
2023-06-20,2.056019334979316
2023-06-21,2.0427032883409257
2023-06-26,2.0326805572007642
2023-06-27,2.039482401062024
2023-06-28,2.037747541867616
2023-06-29,2.0330444274249944
2023-06-30,2.035841278905827
2023-07-03,2.0432037234496883
2023-07-04,2.0433831611617275
2023-07-05,2.0355382529697725
2023-07-06,2.0302670387785207
2023-07-07,2.0276006717225608
2023-07-10,2.027062888551669
2023-07-11,2.0319544031003662
2023-07-12,2.030889503613025
2023-07-13,2.037468362441396
2023-07-14,2.0337873018903707
2023-07-17,2.021452838234675
2023-07-18,2.0192633829338225
2023-07-19,2.0193452055266685
2023-07-20,2.0139507434426616
2023-07-21,2.0153730831898553
2023-07-24,2.0106538500324844
2023-07-25,2.02660500948772
2023-07-26,2.0267278748874995
2023-07-27,2.0288595826803584
2023-07-28,2.0749732296927577
2023-07-31,2.0818590382013484
2023-08-01,2.065961641586809
2023-08-02,2.0567849846743136
2023-08-03,2.070974217762163
2023-08-04,2.0726714736956096
2023-08-07,2.059450683642932
2023-08-08,2.0506934184534784
2023-08-09,2.0492601748628503
2023-08-10,2.050088320978264
2023-08-11,2.0148734119336136
2023-08-14,2.0046130585988498
2023-08-15,2.0074727276864635
2023-08-16,2.0067867864529494
2023-08-17,2.0072329760145338
2023-08-18,2.006240985984064
2023-08-21,1.999641759826832
2023-08-22,2.000054901688914
2023-08-23,1.999917966940309
2023-08-24,1.999372083266896
2023-08-25,1.9993194682120732
2023-08-28,1.999158250320387
2023-08-29,1.9983125245053062
2023-08-30,1.9987002180338866
2023-08-31,1.9953089675362858
2023-09-01,1.9970677708320075
2023-09-04,2.0075492821120897
2023-09-05,2.0007422450202523
2023-09-06,1.998244455936288
2023-09-07,1.9919419671165624
2023-09-08,1.9862803364374733
2023-09-11,1.9891189777590714
2023-09-12,1.989431063579462
2023-09-13,1.9866294633387858
2023-09-14,1.9867128833360064
2023-09-15,1.98299854502221
2023-09-18,1.9868025345219034
2023-09-19,1.9879388881057896
2023-09-20,1.9844177258971705
2023-09-21,1.9741116757172845
2023-09-22,1.97751356681706
2023-09-25,1.9750707366356808
2023-09-26,1.9709133499362599
2023-09-27,1.9686563848335363
2023-09-28,1.9669540556878309
2023-10-09,1.9669964467801693
2023-10-10,1.9643692875359402
2023-10-11,1.9695135595625257
2023-10-12,1.9724403338059522
2023-10-13,1.9712680103337443
2023-10-16,1.9659556375823672
2023-10-17,1.9699346741301473
2023-10-18,1.969319941517752
2023-10-19,1.958095209783073
2023-10-20,1.9555906754015617
2023-10-23,1.9588644371826127
2023-10-24,1.9576819865169068
2023-10-25,1.9590084199449576
2023-10-26,1.9580550413194828
2023-10-27,1.961058735559722
2023-10-30,1.9708589299778614
2023-10-31,1.9684522354230785
2023-11-01,1.9672141266104555
2023-11-02,1.9628163109503436
2023-11-03,1.9673330412867942
2023-11-06,1.9728654527178242
2023-11-07,1.9681375862761517
2023-11-08,1.9671924720373877
2023-11-09,1.9628281461364552
2023-11-10,1.959269770394987
2023-11-13,1.954024600026711
2023-11-14,1.9533504243704451
2023-11-15,1.9570420737432561
2023-11-16,1.9486494969118078
2023-11-17,1.9473354470138482
2023-11-20,1.9495478422989256
2023-11-21,1.9515047170877067
2023-11-22,1.9475086585748134
2023-11-23,1.9476737604105334
2023-11-24,1.9486498581348022
2023-11-27,1.9480413878322278
2023-11-28,1.947932654974688
2023-11-29,1.9481646215334887
2023-11-30,1.9499206368697022
2023-12-01,1.948082091583971
2023-12-04,1.9504680106566252
2023-12-05,1.9440741237940782
2023-12-06,1.944081614617226
2023-12-07,1.9433874590675435
2023-12-08,1.9422897836018491
2023-12-11,1.9434982739843245
2023-12-12,1.943023334991911
2023-12-13,1.9417594861623946
2023-12-14,1.9409470828953284
2023-12-15,1.939807818779946
2023-12-18,1.9411247436204535
2023-12-19,1.9404126973197395
2023-12-20,1.9357808043394809
2023-12-21,1.9352060588316615
2023-12-22,1.9354578878835855
2023-12-25,1.9371743313019114
2023-12-26,1.9356381712651747
2023-12-27,1.93897237312231
2023-12-28,1.9365356224139403
2023-12-29,1.9464500445495259
2024-01-02,1.9316472325116258
2024-01-03,1.9300433002728943
2024-01-04,1.9265838443135799
2024-01-05,1.923813036653792
2024-01-08,1.9152891545563653
2024-01-09,1.9212362287334692
2024-01-10,1.9190477738934244
2024-01-11,1.9166646923633834
2024-01-12,1.918545516206924
2024-01-15,1.9208836700086378
2024-01-16,1.9270492246283981
2024-01-17,1.9143580579872452
2024-01-18,1.9211801256911984
2024-01-19,1.916571461896998
2024-01-22,1.910880180201088
2024-01-23,1.9113757234355973
2024-01-24,1.9204418336638034
2024-01-25,1.9363160786770168
2024-01-26,1.9440406464571711
2024-01-29,1.9510975245286537
2024-01-30,1.9394242746227415
2024-01-31,1.9387930372181106
2024-02-01,1.9315072627862762
2024-02-02,1.9330574249495818
2024-02-05,1.94648271374495
2024-02-06,1.961583022299319
2024-02-07,1.9745100853579323
2024-02-08,1.979424502830541
2024-02-19,1.9896973479606692
2024-02-20,1.9962559210680446
2024-02-21,2.0229065007764775
2024-02-22,2.030722821355279
2024-02-23,2.027998308791196
2024-02-26,2.0055430113459067
2024-02-27,2.015854231684867
2024-02-28,1.9955617926987375
2024-02-29,2.0250158923801207
2024-03-01,2.0314133743757568
2024-03-04,2.030337473680328
2024-03-05,2.0494805135372762
2024-03-06,2.0410535787992656
2024-03-07,2.03311060109009
2024-03-08,2.031886758600335
2024-03-11,2.047133133990294
2024-03-12,2.053389297420301
2024-03-13,2.0396920844316853
2024-03-14,2.043260752040442
2024-03-15,2.0400819385444007
2024-03-18,2.0479552914808004
2024-03-19,2.0400358000936123
2024-03-20,2.0406454161574756
2024-03-21,2.040020985824775
2024-03-22,2.033745836367012
2024-03-25,2.029065589693289
2024-03-26,2.0344407673560845
2024-03-27,2.02663491972705
2024-03-28,2.0277028477167667
2024-03-29,2.0301472035506314
2024-04-01,2.042317638278149
2024-04-02,2.0394263995274025
2024-04-03,2.0414152388176903
2024-04-08,2.033159864132051
2024-04-09,2.0252365618381396
2024-04-10,2.0317468035812487
2024-04-11,2.0349580107808336
2024-04-12,2.0302398886422615
2024-04-15,2.0499304431749397
2024-04-16,2.0519107894223985
2024-04-17,2.0597083750392353
2024-04-18,2.0605743768994538
2024-04-19,2.063197756848164
2024-04-22,2.048431827878577
2024-04-23,2.0351339129264927
2024-04-24,2.031847033865769
2024-04-25,2.0392573068241164
2024-04-26,2.039979534798686
2024-04-29,2.047152414813715
2024-04-30,2.0454277141246338
2024-05-06,2.0772139216459498
2024-05-07,2.078826159140516
2024-05-08,2.0609930873285904
2024-05-09,2.0774303824966203
2024-05-10,2.0836678672227475
2024-05-13,2.0832565502934153
2024-05-14,2.0809327432121987
2024-05-15,2.0695928028997135
2024-05-16,2.082330454676501
2024-05-17,2.1018249363121595
2024-05-20,2.1025437631067057
2024-05-21,2.0987002028963686
2024-05-22,2.0974182331775246
2024-05-23,2.079351811141071
2024-05-24,2.060443031504824
2024-05-27,2.064903590428308
2024-05-28,2.0592599765447397
2024-05-29,2.0598951405756627
2024-05-30,2.054907725182405
2024-05-31,2.047757336608979
2024-06-03,2.053367908549533
2024-06-04,2.054731885774691
2024-06-05,2.0553745082459574
2024-06-06,2.055007242107778
2024-06-07,2.0532701554608708
2024-06-11,2.052568986091273
2024-06-12,2.052943811046497
2024-06-13,2.0547497291886017
2024-06-14,2.054733086909366
2024-06-17,2.0595293674347164
2024-06-18,2.060949177699616
2024-06-19,2.060338608804104
2024-06-20,2.060853569679505
2024-06-21,2.0609065829042197
2024-06-24,2.060688050900841
2024-06-25,2.058485603645522
2024-06-26,2.0607302501647062
2024-06-27,2.0603723797545244
2024-06-28,2.0649261639659606
2024-07-01,2.067143050757932
2024-07-02,2.067851078949598
2024-07-03,2.065000246215198
2024-07-04,2.066991420557142
2024-07-05,2.0618628195742366
2024-07-08,2.0663895460331334
2024-07-09,2.0723694093442298
2024-07-10,2.0663968564950617
2024-07-11,2.0713163249742492
2024-07-12,2.0727474448935674
2024-07-15,2.076711812911704
2024-07-16,2.081578350147465
2024-07-17,2.080686896062816
2024-07-18,2.083600832493938
2024-07-19,2.088400538261397
2024-07-22,2.0775186379047073
2024-07-23,2.047510589306288
2024-07-24,2.0430923871462303
2024-07-25,2.042046630256485
2024-07-26,2.0376788239808206
2024-07-29,2.035311253143839
2024-07-30,2.0313381068687013
2024-07-31,2.0376269546230956
2024-08-01,2.0352195105897053
2024-08-02,2.031268727937271
2024-08-05,2.02666579335834
2024-08-06,2.0274894212450167
2024-08-07,2.0250806320600554
2024-08-08,2.024912883730625
2024-08-09,2.0206180346485243
2024-08-12,2.0231546852670936
2024-08-13,2.020829348558924
2024-08-14,2.0207545852578535
2024-08-15,2.02441788698726
2024-08-16,2.024820054245983
2024-08-19,2.0242248118070605
2024-08-20,2.0223885762191256
2024-08-21,2.0207872561841485
2024-08-22,2.0238650384801313
2024-08-23,2.032254677934754
2024-08-26,2.0312813191186074
2024-08-27,2.0326674385640957
2024-08-28,2.027867231944743
2024-08-29,2.0167105365389433
2024-08-30,2.0216008433911994
2024-09-02,2.009627698784417
2024-09-03,2.0130855306715114
2024-09-04,2.010710076028313
2024-09-05,2.009530269274704
2024-09-06,2.0027278131595834
2024-09-09,1.9937102377668352
2024-09-10,1.992221527822346
2024-09-11,1.998573359441886
2024-09-12,1.9975829929994853
2024-09-13,1.9944882588079604
2024-09-18,2.000868353193861
2024-09-19,2.004487498537719
2024-09-20,2.003969659236605
2024-09-23,2.0057773847607967
2024-09-24,2.028447281001485
2024-09-25,2.0519501232402058
2024-09-26,2.1303567518161324
2024-09-27,2.2375268708358633
2024-09-30,2.4218874729868136
2024-10-08,2.5368411305480922
2024-10-09,2.3427141446211404
2024-10-10,2.3857245819752144
2024-10-11,2.3263811180688103
2024-10-14,2.3708327206555317
2024-10-15,2.3096861980924737
2024-10-16,2.2896064900846267
2024-10-17,2.2432555294314036
2024-10-18,2.3126072841859
2024-10-21,2.3229070821491273
2024-10-22,2.3453088120252024
2024-10-23,2.3599440127977993
2024-10-24,2.3305930019443815
2024-10-25,2.350633612535097
2024-10-28,2.360382865858878
2024-10-29,2.341217924247417
2024-10-30,2.3355197827283165
2024-10-31,2.343572217529065
2024-11-01,2.341572356361746
2024-11-04,2.353824438776077
2024-11-05,2.371460548317705
2024-11-06,2.3648948191796855
2024-11-07,2.397304973292046
2024-11-08,2.3725676433838645
2024-11-11,2.3701555876608063
2024-11-12,2.357556829050321
2024-11-13,2.358825642801075
2024-11-14,2.334030494420145
2024-11-15,2.310482920121144
2024-11-18,2.2996537514394237
2024-11-19,2.302452590704678
2024-11-20,2.3022851972661624
2024-11-21,2.3038885560476703
2024-11-22,2.2870925884991253
2024-11-25,2.2857943347724805
2024-11-26,2.2857943347724805
2024-11-27,2.2857943347724805
2024-11-28,2.2857943347724805
2024-11-29,2.2857341822899864
2024-12-02,2.285446843376303
2024-12-03,2.284340231474236
2024-12-04,2.2856304502335023
2024-12-05,2.2835088036478703
2024-12-06,2.2846814616302886
2024-12-09,2.2862522342720273
2024-12-10,2.2869173641217855
2024-12-11,2.2861779296892797
2024-12-12,2.291033229764264
2024-12-13,2.261773719466596
2024-12-16,2.261584435412058
2024-12-17,2.2637224711458135
2024-12-18,2.266226358434168
2024-12-19,2.263506471091229
2024-12-20,2.257270795189547
2024-12-23,2.261598586283883
2024-12-24,2.27220612830884
2024-12-25,2.272663912162357
2024-12-26,2.274796695245348
2024-12-27,2.2733345159751153
2024-12-30,2.2769336520872403
2024-12-31,2.2700860614176364
2025-01-02,2.2516210173210744
2025-01-03,2.2483193744513805
2025-01-06,2.2513238387005003
2025-01-07,2.2521620902852657
2025-01-08,2.257253818642744
2025-01-09,2.2581697585706415
2025-01-10,2.252675461617008
2025-01-13,2.2480665248914287
2025-01-14,2.2505601284218058
2025-01-15,2.250035634312815
2025-01-16,2.252771030711599
2025-01-17,2.252653092147591
2025-01-20,2.2514640989523587
2025-01-21,2.2512290809186126
2025-01-22,2.244295978459182
2025-01-23,2.2423173809266976
2025-01-24,2.2451167869762974
2025-01-27,2.2443888802028042
2025-02-05,2.2409337529181794
2025-02-06,2.2492566980377786
2025-02-07,2.2575578735707325
2025-02-10,2.2615135196788865
2025-02-11,2.256065634957324
2025-02-12,2.2728700339964867
2025-02-13,2.2721751029958246
2025-02-14,2.286720541483241
2025-02-17,2.2832292518143373
2025-02-18,2.273989315423728
2025-02-19,2.288301220172383
2025-02-20,2.286748177769583
2025-02-21,2.299584818258155
2025-02-24,2.294572779400053
2025-02-25,2.278595742956188
2025-02-26,2.286589865220419
2025-02-27,2.292166129989391
2025-02-28,2.2654061946431634
2025-03-03,2.265381451380944
2025-03-04,2.2596544798509215
2025-03-05,2.2636540869470556
2025-03-06,2.2712004855456884
2025-03-07,2.2729210993229105
2025-03-10,2.2704249717276084
2025-03-11,2.2760154301569364
2025-03-12,2.2692742635950287
2025-03-13,2.2702393972663133
2025-03-14,2.291824126892224
2025-03-17,2.2943516543094686
2025-03-18,2.2930788579513686
2025-03-19,2.299705379410834
2025-03-20,2.283778123424418
2025-03-21,2.263878000253134
2025-03-24,2.2715727268248402
2025-03-25,2.2697037698615827
2025-03-26,2.266376417849123
2025-03-27,2.2697834774968215
2025-03-28,2.2663888992083963
2025-03-31,2.262470776755455
2025-04-01,2.2570347282073517
2025-04-02,2.2539064099340513
2025-04-03,2.2534087260582676
2025-04-07,2.2330695992988603
2025-04-08,2.242016904995307
2025-04-09,2.2439998748933006
2025-04-10,2.246320713029311
2025-04-11,2.2375545053565453
2025-04-14,2.237491539525677
2025-04-15,2.234390523377674
2025-04-16,2.241867359277818
2025-04-17,2.2415591816356923
2025-04-18,2.2385054251525016
2025-04-21,2.231957231399037
2025-04-22,2.232342580076105
2025-04-23,2.22557779220408
2025-04-24,2.2271136272895995
2025-04-25,2.22392211676559
2025-04-28,2.218409759459142
2025-04-29,2.2157779847474703
2025-04-30,2.2115219017595864
2025-05-06,2.215253971212242
2025-05-07,2.218117651855386
2025-05-08,2.221075201553961
2025-05-09,2.2234464205175763
2025-05-12,2.2414906012838585
2025-05-13,2.2445327945191367
2025-05-14,2.2610134749720783
2025-05-15,2.246824470072788
2025-05-16,2.234745137104716
2025-05-19,2.23001401897782
2025-05-20,2.241897679282672
2025-05-21,2.2482273645445345
2025-05-22,2.2504024715543554
2025-05-23,2.2378184661071088
2025-05-26,2.225871482392092
2025-05-27,2.2203703228846066
2025-05-28,2.226034484267056
2025-05-29,2.2211609468420526
2025-05-30,2.2197950097656913
2025-06-03,2.2239656052680328
2025-06-04,2.2224805112722485
2025-06-05,2.2193972538060747
2025-06-06,2.217618108196
2025-06-09,2.224545479912544
2025-06-10,2.2227729384520254
2025-06-11,2.2260192622031414
2025-06-12,2.2319028948049624
2025-06-13,2.2288166749716054
2025-06-16,2.2278640322350785
2025-06-17,2.226547746841452
2025-06-18,2.2237810171293817
2025-06-19,2.2169139998073377
2025-06-20,2.2196851447866317
2025-06-23,2.2225694293171556
2025-06-24,2.2269048405823813
2025-06-25,2.241047855231762
2025-06-26,2.236956650775714
2025-06-27,2.230426685254745
2025-06-30,2.2332775411965122
2025-07-01,2.233418370882487
2025-07-02,2.2436397833585846
2025-07-03,2.253689511762719
2025-07-04,2.25997245488493
2025-07-07,2.253530163685713
2025-07-08,2.2709493859606087
2025-07-09,2.2684797755955994
2025-07-10,2.282950856274507
2025-07-11,2.2815853290761194
2025-07-14,2.2846021354482327
2025-07-15,2.2795140018643023
2025-07-16,2.2784481289635554
2025-07-17,2.288620777100813
2025-07-18,2.2953813680880693
2025-07-21,2.3095036176141392
2025-07-22,2.3437472762030205
2025-07-23,2.33375776688776
2025-07-24,2.352942316559762
2025-07-25,2.3269293839575558
2025-07-28,2.327897875676959
2025-07-29,2.328496840451684
2025-07-30,2.33230585824949
2025-07-31,2.29107648552415
2025-08-01,2.2846650825102093
2025-08-04,2.282751888704105
2025-08-05,2.286784830516526
2025-08-06,2.286509721730499
2025-08-07,2.286992159844304
2025-08-08,2.2875860874784624
2025-08-11,2.288727953311918
2025-08-12,2.293850391291693
2025-08-13,2.3004161374135417
2025-08-14,2.2977661164085683
2025-08-15,2.3083744872786354
2025-08-18,2.315932482216627
2025-08-19,2.302684957693063
2025-08-20,2.313050527607813
2025-08-21,2.3213871070875127
2025-08-22,2.3372340521723016
2025-08-25,2.3667381934100074
2025-08-26,2.378605101914324
2025-08-27,2.3336844418839955
2025-08-28,2.3437808994499267
2025-08-29,2.3615231602159366
2025-09-01,2.366590984215049
2025-09-02,2.355849227981229
2025-09-03,2.343218119472191
2025-09-04,2.329487719745151
2025-09-05,2.361098531100772
2025-09-08,2.3718639628850116
2025-09-09,2.3654714337237808
2025-09-10,2.3550549422742595
2025-09-11,2.3681470419248227
2025-09-12,2.3600338833401464
2025-09-15,2.3662807064660396
2025-09-16,2.3636930619916465
2025-09-17,2.366277752537484
2025-09-18,2.351230741056388
2025-09-19,2.3544104670147035
2025-09-22,2.3625896339943737
2025-09-23,2.362569654033321
2025-09-24,2.3739342190490165
2025-09-25,2.3801541693601873
2025-09-26,2.370039034206836
2025-09-29,2.377777049723773
2025-09-30,2.3813733383138973
2025-10-09,2.399406678585544
2025-10-10,2.3788644524178637
2025-10-13,2.366133176701742
2025-10-14,2.3624212306595367
2025-10-15,2.3716635271104867
2025-10-16,2.376873712414195
2025-10-17,2.3640114034716944
2025-10-20,2.359330876710595
2025-10-21,2.3628357865402947
2025-10-22,2.3638682628190706
2025-10-23,2.367980571590807
2025-10-24,2.366322923986468
2025-10-27,2.370685088521699
2025-10-28,2.36347601705343
2025-10-29,2.3682970686069944
2025-10-30,2.370888043774249
2025-10-31,2.356212728283867
2025-11-03,2.361007606842973
2025-11-04,2.357113842411372
2025-11-05,2.359732504752938
2025-11-06,2.360655698724503
2025-11-07,2.3688455217744795
2025-11-10,2.3819960064650756
2025-11-11,2.3809270641957223
2025-11-12,2.3747137605631385
2025-11-13,2.38692390618622
2025-11-14,2.3795264339416486
2025-11-17,2.3714465674465606
2025-11-18,2.3653444371139054
2025-11-19,2.3696902681431347
2025-11-20,2.362868597897071
2025-11-21,2.356706363100876
2025-11-24,2.3515852401865693
2025-11-25,2.3544819381288553
2025-11-26,2.354428957461442
2025-11-27,2.3555371839297297
2025-11-28,2.354241370638322
2025-12-01,2.3556536624730127
2025-12-02,2.3587516494606104
2025-12-03,2.357203016906798
2025-12-04,2.357139151987673
2025-12-05,2.3580215461047835
2025-12-08,2.3582539974535144
2025-12-09,2.3525309624663517
2025-12-10,2.352357889340704
2025-12-11,2.3486667339583622
2025-12-12,2.356484531742328
2025-12-15,2.351309471805753
2025-12-16,2.345354900978957
2025-12-17,2.3489143693106977
2025-12-18,2.3460662440439597
2025-12-19,2.3496838991628284
2025-12-22,2.352385969213777
2025-12-23,2.349163986596155
2025-12-24,2.349578337443202
2025-12-25,2.3507878779394433
2025-12-26,2.358750276757294
2025-12-29,2.3524916260135362
2025-12-30,2.350557842304206
2025-12-31,2.351403961653344
2026-01-05,2.3567370886930967
2026-01-06,2.3773703159739727
2026-01-07,2.3629898673799885
2026-01-08,2.354904788893577
2026-01-09,2.3615419701200837
2026-01-12,2.3680743670362703
2026-01-13,2.3599669803838763
2026-01-14,2.3523758357542452
2026-01-15,2.3486438855245884
2026-01-16,2.3406300830633957
2026-01-19,2.3357676933175653
2026-01-20,2.3386401489956907
2026-01-21,2.339609656376376
2026-01-22,2.33902213266397
2026-01-23,2.336806085889712
2026-01-26,2.3346705461606088
2026-01-27,2.332136660784843
2026-01-28,2.334580223066142
2026-01-29,2.3401886504933067
2026-01-30,2.3206249645340153
2026-02-02,2.31131415831953
2026-02-03,2.3169626038818936
2026-02-04,2.3271573154571508
2026-02-05,2.327329785178139
2026-02-06,2.3205043758470363
2026-02-09,2.323117380191631
2026-02-10,2.3176431007728637
2026-02-11,2.3201055661009944
2026-02-12,2.3156707617042813
2026-02-13,2.3030823122447863
2026-02-24,2.302743228432272
2026-02-25,2.3055088495889953
2026-02-26,2.2969105679151296
2026-02-27,2.2956793874349084
2026-03-02,2.3040400968745507
2026-03-03,2.309283022439869
2026-03-04,2.3075226704279226
2026-03-05,2.301977855702089
2026-03-06,2.3035002453602984
2026-03-09,2.3101972264836297
2026-03-10,2.301867684632986
2026-03-11,2.310620594693828
2026-03-12,2.314312298038657
2026-03-13,2.3125397955254927
2026-03-16,2.314773226117928
2026-03-17,2.3146149800427835
2026-03-18,2.309589070679664
2026-03-19,2.307017983283532
2026-03-20,2.3096494070751485
2026-03-23,2.290585321048501
2026-03-24,2.2889999649019863
2026-03-25,2.2877059709215684
2026-03-26,2.2845719056729825
2026-03-27,2.2884536235392523
2026-03-30,2.28624172629955
2026-03-31,2.2836670981225464
2026-04-01,2.285064006269752
2026-04-02,2.283583300711096
2026-04-03,2.2752609297389257
2026-04-07,2.2733519099954327
2026-04-08,2.2762251185866034
2026-04-09,2.276539267158848
2026-04-10,2.2790191361604712
2026-04-13,2.2801930467673786
2026-04-14,2.2829486586691385
2026-04-15,2.282007606709085
2026-04-16,2.2878825202052484
2026-04-17,2.2783210385527966
2026-04-20,2.2834169170601064
2026-04-21,2.285238035146342
2026-04-22,2.2862463714907353
2026-04-23,2.282821924331497
2026-04-24,2.2775207244831126
2026-04-27,2.2810507819587063
2026-04-28,2.2802768949563057
2026-04-29,2.2853391376867953
2026-04-30,2.2830488458758573
2026-05-06,2.2911158493996275
2026-05-07,2.287384417131368
2026-05-08,2.282536136378257
2026-05-11,2.2999160122935534
2026-05-12,2.293286906846823
2026-05-13,2.2914553280942815
2026-05-14,2.2753839675504404
2026-05-15,2.274036410389498
2026-05-18,2.2640473027768913
2026-05-19,2.2635151270212472
2026-05-20,2.2599789334574165
2026-05-21,2.2588709058329823
2026-05-22,2.2574550996476748
2026-05-25,2.260127653851446
2026-05-26,2.2585577766247202
2026-05-27,2.2578751653101565
2026-05-28,2.255981600672927
2026-05-29,2.257602935524945
2026-06-01,2.2604436701219415
2026-06-02,2.2613810596877078
2026-06-03,2.261135737801599
2026-06-04,2.259532480217208
2026-06-05,2.259920868562808
2026-06-08,2.2630015327228157
2026-06-09,2.260710309350903
2026-06-10,2.260189606288779
2026-06-11,2.260541541820114
2026-06-12,2.261188212103506
2026-06-15,2.2554464399347314
2026-06-16,2.2494624743567355
2026-06-17,2.245477829161495
2026-06-18,2.2346030097233003
2026-06-22,2.2379276344423134
2026-06-23,2.2344791446671146
2026-06-24,2.2364273067316076
2026-06-25,2.2414131767974292
2026-06-26,2.2272594709634985
2026-06-29,2.2334059337596317
2026-06-30,2.2342846034407655
2026-07-01,2.2437718864543656
2026-07-02,2.2419062111358468
2026-07-03,2.2458422973308525
2026-07-06,2.2506665347291896
2026-07-07,2.2424845834538907
2026-07-08,2.2366944178510435
2026-07-09,2.245316889538616
2026-07-10,2.243508595809653
2026-07-13,2.2420572442126097
2026-07-14,2.2497251033059835
2026-07-15,2.267221552825522
2026-07-16,2.2670194655442466
2026-07-17,2.254454079615022
2026-07-20,2.302862744424037
2026-07-21,2.287992625489449
2026-07-22,2.307731650385059
2026-07-23,2.3041212544821805
2026-07-24,2.279301443786686
2026-07-27,2.2822147357616998
2026-07-28,2.304317972278528
2026-07-29,2.3263916206096793
2026-07-30,2.3695446722841798
2026-07-31,2.3558159725014542
2026-08-03,2.353377463907943
2026-08-04,2.3154347230024728
2026-08-05,2.307634386644238
2026-08-06,2.2945422997905083
2026-08-07,2.2971409509942755
2026-08-10,2.3052672050243816
2026-08-11,2.290759180318529
2026-08-12,2.2993431742955748
2026-08-13,2.2926884060579384
2026-08-14,2.2868503209237567
2026-08-17,2.2826806693316457
2026-08-18,2.2817958411265318
2026-08-19,2.2770840355483393
2026-08-20,2.281530214058903
2026-08-21,2.2743287837455104
2026-08-24,2.274776516757766
2026-08-25,2.2762109582847834
2026-08-26,2.278813781725005
2026-08-27,2.2783089477181004
2026-08-28,2.281952273334836
2026-08-31,2.28169393824897
2026-09-01,2.287201452096115
2026-09-02,2.280185025492411
2026-09-03,2.2824564823901365
2026-09-04,2.2897074081301936
2026-09-07,2.277649978715646
2026-09-08,2.2771329234359556
2026-09-09,2.2766733733989173
2026-09-10,2.2745811692698608
2026-09-11,2.270936215151486
2026-09-14,2.2710483052642325
2026-09-15,2.264213663428039
2026-09-16,2.2614054112063244
2026-09-17,2.26115947569297
2026-09-18,2.260175485894195
2026-09-21,2.26467379759516
2026-09-22,2.2646340489074768
2026-09-23,2.2636130744434975
