date,equity
2017-08-24,1.0
2017-08-25,1.0
2017-08-28,1.0
2017-08-29,1.0
2017-08-30,1.0
2017-08-31,1.0
2017-09-01,1.0
2017-09-04,1.0
2017-09-05,1.0
2017-09-06,1.0
2017-09-07,1.0
2017-09-08,1.0
2017-09-11,1.0
2017-09-12,1.0
2017-09-13,1.0
2017-09-14,1.0
2017-09-15,1.0
2017-09-18,1.0
2017-09-19,1.0
2017-09-20,1.0
2017-09-21,0.9999285714285714
2017-09-22,1.0000054884616985
2017-09-25,0.9998359467572359
2017-09-26,0.9997837241552292
2017-09-27,0.9998599638698716
2017-09-28,1.0003630709403706
2017-09-29,1.000390010541918
2017-10-09,1.0024952526772473
2017-10-10,1.0022200090556599
2017-10-11,1.0020110571566343
2017-10-12,1.002983325987713
2017-10-13,1.0029631609462606
2017-10-16,1.0002821334579024
2017-10-17,1.0011910729499047
2017-10-18,1.0004390244508206
2017-10-19,1.000193387060014
2017-10-20,1.0007311412114124
2017-10-23,1.0005794631935632
2017-10-24,1.0002228958745136
2017-10-25,1.0011301012100051
2017-10-26,1.0015218892320128
2017-10-27,1.0030410621652364
2017-10-30,1.0027649923932145
2017-10-31,1.0022890390942494
2017-11-01,1.0019786577001382
2017-11-02,1.0019983154845034
2017-11-03,1.0023968868783135
2017-11-06,1.0033124467396408
2017-11-07,1.0043440526393526
2017-11-08,1.0040979214418024
2017-11-09,1.005518860656012
2017-11-10,1.0062809193732736
2017-11-13,1.0074132852775537
2017-11-14,1.0058305808822823
2017-11-15,1.0021371273615518
2017-11-16,1.0035509970595142
2017-11-17,1.0048786778916623
2017-11-20,1.006693036825495
2017-11-21,1.0117104583348269
2017-11-22,1.0140682147566955
2017-11-23,1.0079416555629042
2017-11-24,1.0085152052346626
2017-11-27,1.0068077979068062
2017-11-28,1.0046771659117635
2017-11-29,1.0054599990597297
2017-11-30,1.0006483079970399
2017-12-01,0.9996221306912082
2017-12-04,1.0022354105013913
2017-12-05,0.9989846540424437
2017-12-06,0.9969716939693846
2017-12-07,0.9972932347798162
2017-12-08,0.9979032173453095
2017-12-11,0.9982410611761747
2017-12-12,0.9984253396959915
2017-12-13,0.998519311462389
2017-12-14,0.9985833316966313
2017-12-15,0.997992372891181
2017-12-18,0.9986562316425119
2017-12-19,0.9997609162854402
2017-12-20,0.999287190820709
2017-12-21,0.9985335717620425
2017-12-22,0.9989113360014108
2017-12-25,0.9986224460028489
2017-12-26,0.9985674501983635
2017-12-27,0.9975814301623341
2017-12-28,0.9957845762924548
2017-12-29,0.9957490125575872
2018-01-02,0.9956141142511215
2018-01-03,0.9970710459618961
2018-01-04,0.9987548977266605
2018-01-05,0.9997695749894764
2018-01-08,1.0030191569942182
2018-01-09,1.0054277439729895
2018-01-10,1.0060757000735632
2018-01-11,1.0054416774598858
2018-01-12,1.0082275735187596
2018-01-15,1.0026694986855382
2018-01-16,1.0056583777503973
2018-01-17,1.0034771264773599
2018-01-18,1.0068809786357373
2018-01-19,1.0059766667139627
2018-01-22,1.0084438022409759
2018-01-23,1.0141449196612302
2018-01-24,1.016245925920999
2018-01-25,1.0128930742172464
2018-01-26,1.0159485884238617
2018-01-29,1.0129924518449054
2018-01-30,1.0064442821929147
2018-01-31,1.0030587321300999
2018-02-01,1.0021113806746005
2018-02-02,1.0016302227106246
2018-02-05,1.00067987362656
2018-02-06,0.9974709820015473
2018-02-07,0.9958559610375873
2018-02-08,0.9959529301249413
2018-02-09,0.9962184437825855
2018-02-12,0.9961902532991437
2018-02-13,0.9961758413911722
2018-02-14,0.9966450853413416
2018-02-22,0.9962788641622241
2018-02-23,0.9962562732390995
2018-02-26,0.9968095575475119
2018-02-27,0.996997720079469
2018-02-28,0.9970744436050862
2018-03-01,0.9971786917810038
2018-03-02,0.9971694605441853
2018-03-05,0.9971076525989483
2018-03-06,0.9970713152018094
2018-03-07,0.9963681381757505
2018-03-08,0.9966301073991161
2018-03-09,0.9994048478097552
2018-03-12,1.001846474698213
2018-03-13,1.0003319398639177
2018-03-14,0.9947801732336664
2018-03-15,0.9954962900811778
2018-03-16,0.9946772659078954
2018-03-19,0.9956983782408741
2018-03-20,0.9942302561696368
2018-03-21,0.9914782299025454
2018-03-22,0.989488245044762
2018-03-23,0.9767536743911304
2018-03-26,0.9767612753525019
2018-03-27,0.9764979818230778
2018-03-28,0.9762042378428709
2018-03-29,0.9749133526596382
2018-03-30,0.9753061405054172
2018-04-02,0.975369633267031
2018-04-03,0.9750400707718114
2018-04-04,0.973730186109496
2018-04-09,0.9741289696140556
2018-04-10,0.9739443510861945
2018-04-11,0.9743140800984424
2018-04-12,0.9742365045038195
2018-04-13,0.9738220309077663
2018-04-16,0.9743435755734278
2018-04-17,0.9746327862219566
2018-04-18,0.9750303599578088
2018-04-19,0.9754375113523933
2018-04-20,0.9750902511992667
2018-04-23,0.9747307827590536
2018-04-24,0.9746506058972733
2018-04-25,0.9746385037460329
2018-04-26,0.9746182746492548
2018-04-27,0.974647677310086
2018-05-02,0.9742124629920348
2018-05-03,0.9736115108267506
2018-05-04,0.9726929015842863
2018-05-07,0.9725905038568389
2018-05-08,0.9734106840316422
2018-05-09,0.9738490548292843
2018-05-10,0.9771485996568516
2018-05-11,0.9779014004229301
2018-05-14,0.9788210726825683
2018-05-15,0.9791761012217632
2018-05-16,0.9752249122254691
2018-05-17,0.9754541123779651
2018-05-18,0.9780374877258562
2018-05-21,0.9818308116890273
2018-05-22,0.9794319516221399
2018-05-23,0.9720901162659213
2018-05-24,0.9716635411545431
2018-05-25,0.9686529108382083
2018-05-28,0.9698791970632067
2018-05-29,0.9686697096788216
2018-05-30,0.9661350528345413
2018-05-31,0.9677919321083681
2018-06-01,0.9671923879516315
2018-06-04,0.9694150703523395
2018-06-05,0.9704204182485687
2018-06-06,0.9711128163931164
2018-06-07,0.9731651231743834
2018-06-08,0.9697787710199481
2018-06-11,0.9723731090814972
2018-06-12,0.9736387832630791
2018-06-13,0.9734806909402394
2018-06-14,0.9706641142219571
2018-06-15,0.9741084327968713
2018-06-19,0.9678997263825599
2018-06-20,0.9697939501617867
2018-06-21,0.9721814440330243
2018-06-22,0.9715592484731913
2018-06-25,0.9704425969153639
2018-06-26,0.9668286896795864
2018-06-27,0.9654597888830425
2018-06-28,0.965182706370307
2018-06-29,0.967020793482612
2018-07-02,0.9667309000609465
2018-07-03,0.968164522804042
2018-07-04,0.9673309513018881
2018-07-05,0.9679669497492206
2018-07-06,0.9685845600154187
2018-07-09,0.9690199388671259
2018-07-10,0.9701490681578984
2018-07-11,0.9687574977051872
2018-07-12,0.9700305867680118
2018-07-13,0.970750683422034
2018-07-16,0.9705896614220211
2018-07-17,0.9696688208290474
2018-07-18,0.9707290626350333
2018-07-19,0.9709488332855106
2018-07-20,0.9721111316736823
2018-07-23,0.9716684882023575
2018-07-24,0.977649704491127
2018-07-25,0.9781408411661653
2018-07-26,0.9748343290833343
2018-07-27,0.9740844571505615
2018-07-30,0.9677875233445424
2018-07-31,0.9662032988894419
2018-08-01,0.9615781315524341
2018-08-02,0.9561419139624636
2018-08-03,0.9585161809847896
2018-08-06,0.9612500547345987
2018-08-07,0.9618610637028655
2018-08-08,0.9594513406181948
2018-08-09,0.9577637317559308
2018-08-10,0.9576081789573889
2018-08-13,0.9564456690555023
2018-08-14,0.957233946873884
2018-08-15,0.9585848452696771
2018-08-16,0.9564332126206444
2018-08-17,0.9574217525421316
2018-08-20,0.9570169513122778
2018-08-21,0.9568291696052542
2018-08-22,0.9567538648973665
2018-08-23,0.9568668326533376
2018-08-24,0.9567539333124319
2018-08-27,0.9570175247811568
2018-08-28,0.9576178690026373
2018-08-29,0.9578039591626671
2018-08-30,0.9581009529279467
2018-08-31,0.9578788959653396
2018-09-03,0.9575819254777936
2018-09-04,0.957768110005559
2018-09-05,0.9574706899927947
2018-09-06,0.9572093928429722
2018-09-07,0.957022087668033
2018-09-10,0.9573222611662275
2018-09-11,0.957546476872134
2018-09-12,0.9578817792667134
2018-09-13,0.9576961721633193
2018-09-14,0.9580709553242435
2018-09-17,0.9577296399270654
2018-09-18,0.9572802013259546
2018-09-19,0.9576494675830839
2018-09-20,0.9577482085574762
2018-09-21,0.9599366187856484
2018-09-25,0.9576723346339889
2018-09-26,0.9601482778142731
2018-09-27,0.9588620131677872
2018-09-28,0.9602955597544715
2018-10-08,0.9519964433453019
2018-10-09,0.9524466376504503
2018-10-10,0.9525578916901307
2018-10-11,0.9413923050969556
2018-10-12,0.9425330020501094
2018-10-15,0.9432523527469378
2018-10-16,0.9432667635622032
2018-10-17,0.9431537385848296
2018-10-18,0.9433416605728335
2018-10-19,0.9437408481188995
2018-10-22,0.9434393266642139
2018-10-23,0.9437464170877631
2018-10-24,0.9438845997225538
2018-10-25,0.9442817364446922
2018-10-26,0.9442249536355782
2018-10-29,0.9441749700334446
2018-10-30,0.9441105557005245
2018-10-31,0.9435933025811288
2018-11-01,0.9438187545423031
2018-11-02,0.9436242204299722
2018-11-05,0.9436067519772956
2018-11-06,0.9437163200994421
2018-11-07,0.9438273591121011
2018-11-08,0.9438235674561863
2018-11-09,0.9432116097848116
2018-11-12,0.9431963263591584
2018-11-13,0.9455364678275661
2018-11-14,0.9453026814890685
2018-11-15,0.9482505810591223
2018-11-16,0.9495178880093901
2018-11-19,0.9497297325271281
2018-11-20,0.9420027357045498
2018-11-21,0.9430718384147125
2018-11-22,0.942786193383175
2018-11-23,0.9341695863285752
2018-11-26,0.935398877760074
2018-11-27,0.9360509848553135
2018-11-28,0.9376853868690523
2018-11-29,0.9354506153623658
2018-11-30,0.935925273616921
2018-12-03,0.9369504413510666
2018-12-04,0.9366156083944263
2018-12-05,0.9362949329849234
2018-12-06,0.9346611009186501
2018-12-07,0.934906746874195
2018-12-10,0.9348576919260667
2018-12-11,0.9349142620116965
2018-12-12,0.9346268855737775
2018-12-13,0.9342986368316271
2018-12-14,0.9339227856397156
2018-12-17,0.933931175083211
2018-12-18,0.9342306790600953
2018-12-19,0.9345051090769201
2018-12-20,0.934396341691681
2018-12-21,0.9349812630190388
2018-12-24,0.9352257160382005
2018-12-25,0.935703142493974
2018-12-26,0.9356957291662056
2018-12-27,0.9354667986508063
2018-12-28,0.9361108145689835
2019-01-02,0.9361175496562205
2019-01-03,0.9370267801814449
2019-01-04,0.9366972745824004
2019-01-07,0.9364510439424565
2019-01-08,0.9361863848350791
2019-01-09,0.935965942515732
2019-01-10,0.9360988644916156
2019-01-11,0.9356013797383839
2019-01-14,0.9355088736151194
2019-01-15,0.9354643603402573
2019-01-16,0.9359157475615673
2019-01-17,0.9348361852981161
2019-01-18,0.9359682660601736
2019-01-21,0.9395878567629211
2019-01-22,0.9341309108395569
2019-01-23,0.9317652397182368
2019-01-24,0.934215270448822
2019-01-25,0.9379407248336684
2019-01-28,0.936642549869859
2019-01-29,0.9355342616164982
2019-01-30,0.934265889855789
2019-01-31,0.9409322526159872
2019-02-01,0.9461834491828482
2019-02-11,0.9498821848694614
2019-02-12,0.9533607633240896
2019-02-13,0.9629605194408783
2019-02-14,0.96294735631699
2019-02-15,0.9557638414188208
2019-02-18,0.9726786769030071
2019-02-19,0.9706273754780363
2019-02-20,0.9708278483322391
2019-02-21,0.9710294327261899
2019-02-22,0.9803486601674783
2019-02-25,1.0070009923019665
2019-02-26,0.9994794982033778
2019-02-27,0.9969130127760203
2019-02-28,0.9971711651050258
2019-03-01,1.0054297273361497
2019-03-04,1.014316771470781
2019-03-05,1.0219535124446577
2019-03-06,1.0292026672155965
2019-03-07,1.0259192780980115
2019-03-08,1.0082812752138048
2019-03-11,1.0194107060948427
2019-03-12,1.025831056556913
2019-03-13,1.0170239064591262
2019-03-14,1.011218117657864
2019-03-15,1.0161711669547824
2019-03-18,1.02988841728791
2019-03-19,1.0292469633846453
2019-03-20,1.0276667873190188
2019-03-21,1.0280512540664046
2019-03-22,1.0316705341264962
2019-03-25,1.0177460184176192
2019-03-26,1.0108449409453053
2019-03-27,1.0153550285541124
2019-03-28,1.0115873041441306
2019-03-29,1.0218097765822127
2019-04-01,1.033542044850722
2019-04-02,1.034269043566799
2019-04-03,1.0389662406757276
2019-04-04,1.0415784505108037
2019-04-08,1.0411948669827806
2019-04-09,1.0431392410190947
2019-04-10,1.0419515215129762
2019-04-11,1.0342128439987537
2019-04-12,1.0324377257499475
2019-04-15,1.0304230194254138
2019-04-16,1.0405195945102643
2019-04-17,1.0401265261911488
2019-04-18,1.037047115680743
2019-04-19,1.0419252604067382
2019-04-22,1.0337493828139828
2019-04-23,1.0321753498328843
2019-04-24,1.0346709815837396
2019-04-25,1.0292713606784092
2019-04-26,1.0290763372815313
2019-04-29,1.0305371700091652
2019-04-30,1.0305156886048512
2019-05-06,1.0272483147539713
2019-05-07,1.0288622614571827
2019-05-08,1.0261395565997498
2019-05-09,1.0256345096866735
2019-05-10,1.0257502039732411
2019-05-13,1.0258156534838883
2019-05-14,1.0246998947812018
2019-05-15,1.0243532735857346
2019-05-16,1.0247592282714177
2019-05-17,1.024888724579584
2019-05-20,1.0244075142580822
2019-05-21,1.024132181124761
2019-05-22,1.0240595961879215
2019-05-23,1.0243539271554756
2019-05-24,1.0247655628533499
2019-05-27,1.0243258163237454
2019-05-28,1.024356113674268
2019-05-29,1.0245439150138813
2019-05-30,1.0242818213511595
2019-05-31,1.0251823907231092
2019-06-03,1.0260458888565678
2019-06-04,1.0269931060593769
2019-06-05,1.0275915505723523
2019-06-06,1.0275676806694327
2019-06-10,1.0271632765589838
2019-06-11,1.0264838323378287
2019-06-12,1.0266475768741958
2019-06-13,1.0267379132299572
2019-06-14,1.0282770380827042
2019-06-17,1.0277266056819765
2019-06-18,1.0282866627808767
2019-06-19,1.0304013770037384
2019-06-20,1.0377646787877564
2019-06-21,1.0395897719564349
2019-06-24,1.0402629863376047
2019-06-25,1.034736718009399
2019-06-26,1.0326974484711646
2019-06-27,1.0401132875559653
2019-06-28,1.037151360849672
2019-07-01,1.0535855678742199
2019-07-02,1.0539282888758952
2019-07-03,1.0529658830238873
2019-07-04,1.0514352920827132
2019-07-05,1.0540281429216471
2019-07-08,1.037957652128658
2019-07-09,1.035345068341944
2019-07-10,1.03639527712006
2019-07-11,1.0396765732354718
2019-07-12,1.040224287350532
2019-07-15,1.043060382567165
2019-07-16,1.0437541958334784
2019-07-17,1.0423812450791086
2019-07-18,1.0392915422893776
2019-07-19,1.044971970626717
2019-07-22,1.040341210486784
2019-07-23,1.0425913127281004
2019-07-24,1.0469686920557153
2019-07-25,1.0495472159041839
2019-07-26,1.0477558481832279
2019-07-29,1.0469362844208068
2019-07-30,1.0486874842117695
2019-07-31,1.046329401462192
2019-08-01,1.0426489159573473
2019-08-02,1.0392826205087131
2019-08-05,1.0400226540444282
2019-08-06,1.0377424777266282
2019-08-07,1.0389387584038257
2019-08-08,1.0395555337018616
2019-08-09,1.0403529813552939
2019-08-12,1.039966792343048
2019-08-13,1.0418383600858179
2019-08-14,1.039927154316914
2019-08-15,1.040722166456295
2019-08-16,1.0406834452299063
2019-08-19,1.040045042641248
2019-08-20,1.0388122099859514
2019-08-21,1.0388624497110257
2019-08-22,1.0394993931585386
2019-08-23,1.0390930745686444
2019-08-26,1.0407053969069278
2019-08-27,1.0435046375959325
2019-08-28,1.0431426514983766
2019-08-29,1.0439613010608457
2019-08-30,1.0408098101101715
2019-09-02,1.0458212519020977
2019-09-03,1.0470054049785877
2019-09-04,1.0513661532783865
2019-09-05,1.055688563783321
2019-09-06,1.0574834352910718
2019-09-09,1.0648424360435638
2019-09-10,1.0606441103251345
2019-09-11,1.0598315279066868
2019-09-12,1.0648345924894203
2019-09-16,1.0620809941101914
2019-09-17,1.0532020420816488
2019-09-18,1.0548837049029431
2019-09-19,1.057216052331054
2019-09-20,1.0584296681852328
2019-09-23,1.0532238835386583
2019-09-24,1.0533569924410777
2019-09-25,1.0458977507246145
2019-09-26,1.0461605290219587
2019-09-27,1.0461605290219587
2019-09-30,1.0459716758699455
2019-10-08,1.045172257815166
2019-10-09,1.0451692703417572
2019-10-10,1.0451722551532274
2019-10-11,1.0451752398538336
2019-10-14,1.0451289500793435
2019-10-15,1.0451551263681347
2019-10-16,1.0448847981497429
2019-10-17,1.0450347425972113
2019-10-18,1.0439916696582634
2019-10-21,1.0435804124633121
2019-10-22,1.0442752757543516
2019-10-23,1.0429781416198534
2019-10-24,1.0435549642528348
2019-10-25,1.0438881183420252
2019-10-28,1.0450068558828587
2019-10-29,1.0445951221048557
2019-10-30,1.0434757093552423
2019-10-31,1.043433968135031
2019-11-01,1.0443198584631537
2019-11-04,1.0472317021389974
2019-11-05,1.0506544671250173
2019-11-06,1.0488501942939403
2019-11-07,1.049385574857777
2019-11-08,1.0486558667455708
2019-11-11,1.0433152520875035
2019-11-12,1.0454477091810848
2019-11-13,1.0443435523751703
2019-11-14,1.0437689616744763
2019-11-15,1.0431485439611026
2019-11-18,1.0459998762199476
2019-11-19,1.0496348434412779
2019-11-20,1.0472171700690331
2019-11-21,1.044957503815321
2019-11-22,1.0434788116139422
2019-11-25,1.0435059948157313
2019-11-26,1.0452136824203904
2019-11-27,1.046131161575858
2019-11-28,1.0480851717136928
2019-11-29,1.0473291697793792
2019-12-02,1.049090914188676
2019-12-03,1.0467162185086134
2019-12-04,1.044667392104359
2019-12-05,1.0449793631967825
2019-12-06,1.0456884746558166
2019-12-09,1.0465059232179676
2019-12-10,1.0458432910978412
2019-12-11,1.0450498467210192
2019-12-12,1.0475333079713565
2019-12-13,1.0539926553217953
2019-12-16,1.059031643072875
2019-12-17,1.066460002323244
2019-12-18,1.064462983189573
2019-12-19,1.064764554552935
2019-12-20,1.0636479416687772
2019-12-23,1.058294950529622
2019-12-24,1.0649090873688778
2019-12-25,1.0646422581461565
2019-12-26,1.07044298920932
2019-12-27,1.0715014685074646
2019-12-30,1.0752232046395638
2019-12-31,1.0750835748075325
2020-01-02,1.085796886582699
2020-01-03,1.0886531629314316
2020-01-06,1.0876624612218366
2020-01-07,1.094937412725279
2020-01-08,1.0872704880578308
2020-01-09,1.0952802463244633
2020-01-10,1.099368720146818
2020-01-13,1.1055100095288175
2020-01-14,1.1028703273182594
2020-01-15,1.1019463511231178
2020-01-16,1.1019491682097637
2020-01-17,1.1017570262842902
2020-01-20,1.1063284386483738
2020-01-21,1.0976959185523703
2020-01-22,1.1007972408764304
2020-01-23,1.0919606030040316
2020-02-03,1.0845646887791296
2020-02-04,1.0831297331622718
2020-02-05,1.0827015999536647
2020-02-06,1.0844765914631556
2020-02-07,1.0861824337283486
2020-02-10,1.0882365704081634
2020-02-11,1.0915080109939312
2020-02-12,1.0969741499918717
2020-02-13,1.1042793301770164
2020-02-14,1.0973850231428208
2020-02-17,1.100469780370798
2020-02-18,1.0993419978140284
2020-02-19,1.0957627588928374
2020-02-20,1.1023397344040244
2020-02-21,1.1050626050021077
2020-02-24,1.1032664173590159
2020-02-25,1.1031835999243802
2020-02-26,1.0956996482445462
2020-02-27,1.0959969271077041
2020-02-28,1.082212867581888
2020-03-02,1.0896476581747336
2020-03-03,1.0919248789749587
2020-03-04,1.0942566534320748
2020-03-05,1.0978360122401258
2020-03-06,1.0954906131755815
2020-03-09,1.0807891639490943
2020-03-10,1.0880784407291448
2020-03-11,1.0829300199517076
2020-03-12,1.0745979685208409
2020-03-13,1.0672706470701507
2020-03-16,1.059691362855176
2020-03-17,1.0592416324053613
2020-03-18,1.0592835048376295
2020-03-19,1.058810214584637
2020-03-20,1.058772399934116
2020-03-23,1.0587587861351944
2020-03-24,1.058757273238112
2020-03-25,1.0587489521496385
2020-03-26,1.0587497079873076
2020-03-27,1.0587534871405673
2020-03-30,1.0587020701959882
2020-03-31,1.0586642594077669
2020-04-01,1.0588051368270222
2020-04-02,1.0587116981962439
2020-04-03,1.0586764666221227
2020-04-07,1.058994880585911
2020-04-08,1.0575087458754995
2020-04-09,1.057465963652168
2020-04-10,1.0572561513677983
2020-04-13,1.056663475359522
2020-04-14,1.0589582779514348
2020-04-15,1.0584889451759751
2020-04-16,1.0599420402329376
2020-04-17,1.0646376687081995
2020-04-20,1.065595920383606
2020-04-21,1.058778537963794
2020-04-22,1.0640191940832564
2020-04-23,1.0655859249428796
2020-04-24,1.0603212781104314
2020-04-27,1.0663665364740027
2020-04-28,1.0699291741352546
2020-04-29,1.0735678304365541
2020-04-30,1.080957406096186
2020-05-06,1.0789449325770395
2020-05-07,1.075602589349091
2020-05-08,1.0813391970532769
2020-05-11,1.080632649375196
2020-05-12,1.0778949392478288
2020-05-13,1.0795912532913068
2020-05-14,1.0725211557605017
2020-05-15,1.0734482264168992
2020-05-18,1.076602515486791
2020-05-19,1.0839147239100007
2020-05-20,1.0813484080000273
2020-05-21,1.0760037167099044
2020-05-22,1.0685647163690595
2020-05-25,1.0714421482240384
2020-05-26,1.0768576694001708
2020-05-27,1.074537787685949
2020-05-28,1.0748918790009108
2020-05-29,1.073962346449143
2020-06-01,1.077463969488328
2020-06-02,1.0768105032861088
2020-06-03,1.078805375296658
2020-06-04,1.0812827090155164
2020-06-05,1.0831720168050345
2020-06-08,1.0847701382253825
2020-06-09,1.0902512744689528
2020-06-10,1.0906161556473521
2020-06-11,1.0854451874615136
2020-06-12,1.0807826088189727
2020-06-15,1.075630658737051
2020-06-16,1.084700858205251
2020-06-17,1.087631171006888
2020-06-18,1.088649478617066
2020-06-19,1.0933979121504318
2020-06-22,1.0931965612258066
2020-06-23,1.0994191563852822
2020-06-24,1.103037223666655
2020-06-29,1.0957218804182922
2020-06-30,1.1029374942609758
2020-07-01,1.108344173399791
2020-07-02,1.1179162783979344
2020-07-03,1.1288348298190536
2020-07-06,1.158253082675864
2020-07-07,1.1594149519184516
2020-07-08,1.1689285245017027
2020-07-09,1.1820279808210885
2020-07-10,1.1759282928330126
2020-07-13,1.1931489783379436
2020-07-14,1.1822899618652314
2020-07-15,1.1731507984762617
2020-07-16,1.1440921310441141
2020-07-17,1.149835279733132
2020-07-20,1.1619632712484336
2020-07-21,1.1739758211394535
2020-07-22,1.1785278202045681
2020-07-23,1.1783071252868789
2020-07-24,1.1492882272796747
2020-07-27,1.1519581053653702
2020-07-28,1.156431626777073
2020-07-29,1.1615998846598157
2020-07-30,1.1598814440830392
2020-07-31,1.164961982790542
2020-08-03,1.1689418017680728
2020-08-04,1.1724691908654015
2020-08-05,1.1762626199731339
2020-08-06,1.177288641519878
2020-08-07,1.1749882675161607
2020-08-10,1.1738136782571447
2020-08-11,1.1682650655414788
2020-08-12,1.1597146695942924
2020-08-13,1.1633282725385035
2020-08-14,1.164719641011927
2020-08-17,1.1679930884304017
2020-08-18,1.168472147989624
2020-08-19,1.1643594919310774
2020-08-20,1.1591938691619397
2020-08-21,1.1640208998330055
2020-08-24,1.170527472448548
2020-08-25,1.1771707122248238
2020-08-26,1.170750215084555
2020-08-27,1.178980701780587
2020-08-28,1.1877042581545278
2020-08-31,1.1899942799405057
2020-09-01,1.1874749081603024
2020-09-02,1.1942768571770268
2020-09-03,1.1967769625417664
2020-09-04,1.1777220135855906
2020-09-07,1.159597084564501
2020-09-08,1.1632981340590227
2020-09-09,1.1577045447759937
2020-09-10,1.1577045447759937
2020-09-11,1.1577045447759937
2020-09-14,1.1577045447759937
2020-09-15,1.1577045447759937
2020-09-16,1.1577045447759937
2020-09-17,1.1577045447759937
2020-09-18,1.1577045447759937
2020-09-21,1.1577045447759937
2020-09-22,1.157621851594224
2020-09-23,1.157415461835442
2020-09-24,1.157311371034549
2020-09-25,1.1571125589871472
2020-09-28,1.1571496884507317
2020-09-29,1.156933761704955
2020-09-30,1.156659106097604
2020-10-09,1.1564657497541668
2020-10-12,1.156246853804619
2020-10-13,1.1571961714570358
2020-10-14,1.1556197638803407
2020-10-15,1.1520903258645394
2020-10-16,1.1516797841102586
2020-10-19,1.1497828047416143
2020-10-20,1.1524592437539563
2020-10-21,1.1515475373520399
2020-10-22,1.1491067578220076
2020-10-23,1.143468405628432
2020-10-26,1.1417387402332555
2020-10-27,1.1435022850798147
2020-10-28,1.1463453095875635
2020-10-29,1.1466058401011665
2020-10-30,1.1443029442862673
2020-11-02,1.144566919554872
2020-11-03,1.1453340215257388
2020-11-04,1.1450918132199737
2020-11-05,1.1486227240872695
2020-11-06,1.1463480357279214
2020-11-09,1.154851977138829
2020-11-10,1.1505367142390255
2020-11-11,1.1436136355024695
2020-11-12,1.1435770371401837
2020-11-13,1.1412450286220617
2020-11-16,1.1453642347150323
2020-11-17,1.1438048111059147
2020-11-18,1.143248935303782
2020-11-19,1.1442425921390313
2020-11-20,1.144458732075648
2020-11-23,1.1477830118762697
2020-11-24,1.1466699132519536
2020-11-25,1.1422098445079747
2020-11-26,1.1419874322019208
2020-11-27,1.1457345520373032
2020-11-30,1.1417200945441421
2020-12-01,1.14630933296809
2020-12-02,1.1455416880109752
2020-12-03,1.145526645261301
2020-12-04,1.1455296170192997
2020-12-07,1.1431913798771616
2020-12-08,1.1419801511876337
2020-12-09,1.1398306573832797
2020-12-10,1.1389076506044309
2020-12-11,1.137333781377982
2020-12-14,1.1374699694929624
2020-12-15,1.1367359999187934
2020-12-16,1.1373883428606837
2020-12-17,1.1384310796087143
2020-12-18,1.1384970267883683
2020-12-21,1.1408686581514227
2020-12-22,1.137352679283123
2020-12-23,1.1381668810486576
2020-12-24,1.1381106461261183
2020-12-25,1.1395379564957682
2020-12-28,1.1398604701205157
2020-12-29,1.1393380691027526
2020-12-30,1.1411583800529586
2020-12-31,1.1464984693952662
2021-01-04,1.1502698737583548
2021-01-05,1.1535546142715887
2021-01-06,1.155262041654892
2021-01-07,1.1566226380818037
2021-01-08,1.155276627207897
2021-01-11,1.1487133831425496
2021-01-12,1.1575999300495303
2021-01-13,1.1548165056407265
2021-01-14,1.154804640244325
2021-01-15,1.155641501035264
2021-01-18,1.1614855554898873
2021-01-19,1.1594434903549133
2021-01-20,1.1657326574389983
2021-01-21,1.1716531027848323
2021-01-22,1.1733218766342906
2021-01-25,1.1825890802740382
2021-01-26,1.1696674183969213
2021-01-27,1.1718189657351796
2021-01-28,1.152796011970404
2021-01-29,1.1503316328254125
2021-02-01,1.1522939448284617
2021-02-02,1.1584394075028155
2021-02-03,1.1589810997412837
2021-02-04,1.1590173497729477
2021-02-05,1.1598941507329774
2021-02-08,1.1607500717793278
2021-02-09,1.1643546157148168
2021-02-10,1.1731323837188465
2021-02-18,1.1696210811033616
2021-02-19,1.1673202597280705
2021-02-22,1.1564133198600626
2021-02-23,1.153408268241762
2021-02-24,1.1410480131268685
2021-02-25,1.14508166846762
2021-02-26,1.1354630150125185
2021-03-01,1.1376898794489367
2021-03-02,1.136662371706116
2021-03-03,1.1391557222914783
2021-03-04,1.136334629840992
2021-03-05,1.136028896279842
2021-03-08,1.1317100837218654
2021-03-09,1.1312962050545081
2021-03-10,1.131076757089308
2021-03-11,1.1319493678446642
2021-03-12,1.1325746463547695
2021-03-15,1.1335530470408977
2021-03-16,1.133922616445093
2021-03-17,1.133255027013786
2021-03-18,1.133151465980035
2021-03-19,1.1317506475506076
2021-03-22,1.1323234506602422
2021-03-23,1.132257598214131
2021-03-24,1.1306438636024891
2021-03-25,1.1306379706950094
2021-03-26,1.1313185978617157
2021-03-29,1.1320886047959051
2021-03-30,1.1325842379424684
2021-03-31,1.1320149391982766
2021-04-01,1.1331153609742752
2021-04-02,1.1342173799689086
2021-04-06,1.1360594136009314
2021-04-07,1.13679372215961
2021-04-08,1.1380548895276223
2021-04-09,1.138755882935398
2021-04-12,1.136491490378646
2021-04-13,1.1351274817503783
2021-04-14,1.137618873253305
2021-04-15,1.1365771927168398
2021-04-16,1.1397172747011568
2021-04-19,1.1403471460640555
2021-04-20,1.1371062737149142
2021-04-21,1.135893707680856
2021-04-22,1.1385525895721007
2021-04-23,1.1385558141306544
2021-04-26,1.136136168178834
2021-04-27,1.136165547569604
2021-04-28,1.1384211243509172
2021-04-29,1.1388340226740719
2021-04-30,1.1382060306484791
2021-05-06,1.1348886631166402
2021-05-07,1.131091632034229
2021-05-10,1.1327882029184586
2021-05-11,1.1308233436163435
2021-05-12,1.1326277502809041
2021-05-13,1.129784112952919
2021-05-14,1.1341968943372798
2021-05-17,1.1366926665673822
2021-05-18,1.137683999062259
2021-05-19,1.1373415207000872
2021-05-20,1.1376302158643334
2021-05-21,1.1355781057236725
2021-05-24,1.138113829660626
2021-05-25,1.1468808781953248
2021-05-26,1.148079771410704
2021-05-27,1.150062875448551
2021-05-28,1.1486666098111404
2021-05-31,1.153267046190624
2021-06-01,1.1542927546818866
2021-06-02,1.148834442537227
2021-06-03,1.1466926678095142
2021-06-04,1.1493905903507142
2021-06-07,1.1497567023442525
2021-06-08,1.1472826781735028
2021-06-09,1.1470501307453524
2021-06-10,1.1508397044970515
2021-06-11,1.1516188948311998
2021-06-15,1.1503948414646632
2021-06-16,1.1443759785396486
2021-06-17,1.1434885278281661
2021-06-18,1.1455400462328487
2021-06-21,1.14360943791077
2021-06-22,1.1440151867003028
2021-06-23,1.1468492594749764
2021-06-24,1.1444855311774411
2021-06-25,1.1479036146484034
2021-06-28,1.14985234994811
2021-06-29,1.1477576953997168
2021-06-30,1.152126116473354
2021-07-01,1.1487236076451492
2021-07-02,1.1436627464817255
2021-07-05,1.1477980757381017
2021-07-06,1.146424111935685
2021-07-07,1.1519215023923235
2021-07-08,1.151506276843516
2021-07-09,1.1521780261646941
2021-07-12,1.1592778498365564
2021-07-13,1.1608899530722412
2021-07-14,1.1585712581261742
2021-07-15,1.1593598097386113
2021-07-16,1.1559602011554428
2021-07-19,1.1537767927594489
2021-07-20,1.1551245209944985
2021-07-21,1.1598184549728152
2021-07-22,1.160033325561549
2021-07-23,1.1574806003778622
2021-07-26,1.1527528760277925
2021-07-27,1.149388878030463
2021-07-28,1.1484250219710428
2021-07-29,1.148387862738867
2021-07-30,1.1467512702623701
2021-08-02,1.1490056107987316
2021-08-03,1.1469637286683017
2021-08-04,1.1497001657533097
2021-08-05,1.1491390586159143
2021-08-06,1.1506219690651607
2021-08-09,1.1500595555489421
2021-08-10,1.150787836655843
2021-08-11,1.151527144352831
2021-08-12,1.1522879132169563
2021-08-13,1.1530536837832797
2021-08-16,1.1514252003273497
2021-08-17,1.1470265256078398
2021-08-18,1.1480121577796891
2021-08-19,1.1458271182847475
2021-08-20,1.146119574535792
2021-08-23,1.1491471231878727
2021-08-24,1.1529385157385392
2021-08-25,1.1542220525939382
2021-08-26,1.1536878946046312
2021-08-27,1.155267090269131
2021-08-30,1.1575814118904337
2021-08-31,1.161372490128851
2021-09-01,1.1586260965265736
2021-09-02,1.162311139356442
2021-09-03,1.160682752101107
2021-09-06,1.1637823052548983
2021-09-07,1.1686347493082632
2021-09-08,1.1688475445400792
2021-09-09,1.1700588906120928
2021-09-10,1.1690767023708768
2021-09-13,1.1690660311270362
2021-09-14,1.1642896148708552
2021-09-15,1.1631296908426716
2021-09-16,1.157912374518591
2021-09-17,1.1556271589256408
2021-09-22,1.1578912713247203
2021-09-23,1.1583885549378654
2021-09-24,1.1536677763805445
2021-09-27,1.1513622026471684
2021-09-28,1.1513622026471684
2021-09-29,1.1513210825685025
2021-09-30,1.1512765123045117
2021-10-08,1.1508193252478087
2021-10-11,1.149983200972243
2021-10-12,1.1480272985011324
2021-10-13,1.1486431713921856
2021-10-14,1.1481963093225676
2021-10-15,1.1487167997140872
2021-10-18,1.1472599351661537
2021-10-19,1.1482268813930157
2021-10-20,1.1480533853646893
2021-10-21,1.1470022384104608
2021-10-22,1.149318052973965
2021-10-25,1.1508374821955933
2021-10-26,1.1481540056253985
2021-10-27,1.142315797871869
2021-10-28,1.140879672521532
2021-10-29,1.1432101608083887
2021-11-01,1.1443755720966837
2021-11-02,1.1427837826812797
2021-11-03,1.1435413913081045
2021-11-04,1.1460210986477324
2021-11-05,1.1471196071249727
2021-11-08,1.1476535436712518
2021-11-09,1.1483748678658519
2021-11-10,1.1471736686820575
2021-11-11,1.1478525693903494
2021-11-12,1.1492631671672595
2021-11-15,1.1492365348626887
2021-11-16,1.1472370230870816
2021-11-17,1.15107164441223
2021-11-18,1.1500856365600476
2021-11-19,1.1545124284743393
2021-11-22,1.158334215719519
2021-11-23,1.1544820918756367
2021-11-24,1.1543816545784589
2021-11-25,1.1549356705089984
2021-11-26,1.1524319808504369
2021-11-29,1.1532682956287357
2021-11-30,1.153878880090973
2021-12-01,1.1538252856686595
2021-12-02,1.150164214313483
2021-12-03,1.1516560013714954
2021-12-06,1.1481470738787942
2021-12-07,1.1473634877632262
2021-12-08,1.1494930281244224
2021-12-09,1.1519325634011266
2021-12-10,1.1512896966230084
2021-12-13,1.1515714146225307
2021-12-14,1.1497924332327967
2021-12-15,1.1485433012454773
2021-12-16,1.1507371836905418
2021-12-17,1.1464296354506862
2021-12-20,1.1415895019667948
2021-12-21,1.1437910305154086
2021-12-22,1.1445149195596045
2021-12-23,1.1468869921905496
2021-12-24,1.14652860395895
2021-12-27,1.146658555376461
2021-12-28,1.1478449539378888
2021-12-29,1.1458473502408322
2021-12-30,1.1458069866233898
2021-12-31,1.147257677071178
2022-01-04,1.1488783654187775
2022-01-05,1.1453669519696656
2022-01-06,1.1405566519890247
2022-01-07,1.1408852865091543
2022-01-10,1.140850493254689
2022-01-11,1.1413960154791551
2022-01-12,1.1410563054369058
2022-01-13,1.1411609963331466
2022-01-14,1.1402926006456104
2022-01-17,1.1394503862878778
2022-01-18,1.1400963070038685
2022-01-19,1.1404409006963796
2022-01-20,1.1436268902283717
2022-01-21,1.1440566072671199
2022-01-24,1.1434546832834858
2022-01-25,1.1403941938694835
2022-01-26,1.1397868503789559
2022-01-27,1.13605993629521
2022-01-28,1.1362134350936306
2022-02-07,1.1360649895920554
2022-02-08,1.1362486728855572
2022-02-09,1.1362917835224262
2022-02-10,1.1363408532241943
2022-02-11,1.1356924636772543
2022-02-14,1.1346986414779405
2022-02-15,1.1351268222772446
2022-02-16,1.1346423048060916
2022-02-17,1.135081222978996
2022-02-18,1.1369462943539235
2022-02-21,1.1373157309580075
2022-02-22,1.138070682024619
2022-02-23,1.136820975398155
2022-02-24,1.1380518826843886
2022-02-25,1.1366887268940817
2022-02-28,1.136427976172342
2022-03-01,1.137063564600499
2022-03-02,1.138804832405343
2022-03-03,1.139301048693673
2022-03-04,1.139395824692805
2022-03-07,1.14084170450296
2022-03-08,1.1408890980766917
2022-03-09,1.141856233266646
2022-03-10,1.1391965489260731
2022-03-11,1.1393609695622793
2022-03-14,1.138841546416094
2022-03-15,1.1365508178671755
2022-03-16,1.1356033159263308
2022-03-17,1.1355614862596364
2022-03-18,1.135752780893361
2022-03-21,1.1367590616105148
2022-03-22,1.1366773139306459
2022-03-23,1.140067123755811
2022-03-24,1.1383678702643922
2022-03-25,1.1412669973943275
2022-03-28,1.1410481313473306
2022-03-29,1.142741165282945
2022-03-30,1.1450783874256858
2022-03-31,1.1449310652595373
2022-04-01,1.1440243727710342
2022-04-06,1.1445766265234718
2022-04-07,1.1409556128760259
2022-04-08,1.1432411612437956
2022-04-11,1.1390448586466797
2022-04-12,1.1372939981206738
2022-04-13,1.1376789310070228
2022-04-14,1.1390887373822802
2022-04-15,1.1385313401657562
2022-04-18,1.137469390892395
2022-04-19,1.1367837231350864
2022-04-20,1.1356083672201196
2022-04-21,1.1366426518949044
2022-04-22,1.1368579805946901
2022-04-25,1.1362655380795992
2022-04-26,1.1355532615002195
2022-04-27,1.1356084509423074
2022-04-28,1.1355532451248467
2022-04-29,1.136657034423873
2022-05-05,1.136384275886346
2022-05-06,1.1362201087763537
2022-05-09,1.1365487552692517
2022-05-10,1.1359619654276865
2022-05-11,1.1354612091876908
2022-05-12,1.1362766078790965
2022-05-13,1.1354834328065238
2022-05-16,1.1354739966245373
2022-05-17,1.1355270998419473
2022-05-18,1.1355426655287282
2022-05-19,1.134236478573329
2022-05-20,1.1350326446000438
2022-05-23,1.1339779542699453
2022-05-24,1.1268224126974697
2022-05-25,1.1303917478766246
2022-05-26,1.1321323401423398
2022-05-27,1.134136427249062
2022-05-30,1.1357270373038424
2022-05-31,1.1384169160607183
2022-06-01,1.138772589674175
2022-06-02,1.1399642385674253
2022-06-06,1.1506117859571023
2022-06-07,1.1537766168382815
2022-06-08,1.1635578673935354
2022-06-09,1.157293825627362
2022-06-10,1.1665903939530842
2022-06-13,1.1582212417821212
2022-06-14,1.1594203559665983
2022-06-15,1.162494588429005
2022-06-16,1.1584622039884493
2022-06-17,1.1664681964259278
2022-06-20,1.1686547355424732
2022-06-21,1.1695261295988868
2022-06-22,1.1615260668132408
2022-06-23,1.1731723782906984
2022-06-24,1.1820233173032273
2022-06-27,1.1874531171494331
2022-06-28,1.1925161577176786
2022-06-29,1.1823772987010974
2022-06-30,1.1862014368730085
2022-07-01,1.1837478820781528
2022-07-04,1.1897432554812761
2022-07-05,1.1895950801900408
2022-07-06,1.1800572848247681
2022-07-07,1.1839092256126738
2022-07-08,1.183029472723709
2022-07-11,1.1704117637709137
2022-07-12,1.16821495237405
2022-07-13,1.1682992127616947
2022-07-14,1.1683029472635922
2022-07-15,1.168381259204547
2022-07-18,1.1682037844290674
2022-07-19,1.1669370803882086
2022-07-20,1.1695891077096936
2022-07-21,1.1699368316835013
2022-07-22,1.1706438769271894
2022-07-25,1.1675701946085189
2022-07-26,1.1685006748348894
2022-07-27,1.1695477093185465
2022-07-28,1.1725627114293018
2022-07-29,1.1767984099653608
2022-08-01,1.1776943374243147
2022-08-02,1.1753243880711814
2022-08-03,1.1745936927706215
2022-08-04,1.1780054995497429
2022-08-05,1.1784778610305717
2022-08-08,1.177910783567601
2022-08-09,1.1770775863991945
2022-08-10,1.1757087931239618
2022-08-11,1.181019174276814
2022-08-12,1.1795960632373463
2022-08-15,1.1837920226573806
2022-08-16,1.186577507367803
2022-08-17,1.1867101323622948
2022-08-18,1.1842721503910465
2022-08-19,1.181511349740251
2022-08-22,1.182430493404813
2022-08-23,1.1802548074055388
2022-08-24,1.1710368247441885
2022-08-25,1.1739930530395188
2022-08-26,1.1742280343586322
2022-08-29,1.1695088735827492
2022-08-30,1.1677759235797907
2022-08-31,1.168487305743719
2022-09-01,1.1658080125336694
2022-09-02,1.1653314686823988
2022-09-05,1.1648919306752394
2022-09-06,1.165787068115293
2022-09-07,1.1645093716109907
2022-09-08,1.1624078001932334
2022-09-09,1.1632251120876311
2022-09-13,1.1626069217030817
2022-09-14,1.1618343974870533
2022-09-15,1.1620825639769825
2022-09-16,1.160255708907883
2022-09-19,1.160255708907883
2022-09-20,1.1601511092308212
2022-09-21,1.1601511092308212
2022-09-22,1.1601511092308212
2022-09-23,1.1601511092308212
2022-09-26,1.1601511092308212
2022-09-27,1.1601511092308212
2022-09-28,1.1601511092308212
2022-09-29,1.1601511092308212
2022-09-30,1.1601096752626345
2022-10-10,1.1600168821819385
2022-10-11,1.1598308055593336
2022-10-12,1.1600647718685422
2022-10-13,1.1601256020224782
2022-10-14,1.1600672391011317
2022-10-17,1.1596025239179055
2022-10-18,1.1598337734866038
2022-10-19,1.1596053754033206
2022-10-20,1.159217061009559
2022-10-21,1.1592195437935064
2022-10-24,1.159174829733865
2022-10-25,1.1591976371508077
2022-10-26,1.159011685390805
2022-10-27,1.159611721961215
2022-10-28,1.1581753599214688
2022-10-31,1.161015915075548
2022-11-01,1.161377676917446
2022-11-02,1.1591573700909645
2022-11-03,1.1555296153397632
2022-11-04,1.1566080231098235
2022-11-07,1.1572836227009802
2022-11-08,1.1579097827115328
2022-11-09,1.1589588962676929
2022-11-10,1.1537894755668534
2022-11-11,1.1596503397876268
2022-11-14,1.1565064053737457
2022-11-15,1.166332574638775
2022-11-16,1.1647192149181007
2022-11-17,1.1636383818669218
2022-11-18,1.1612452523613026
2022-11-21,1.1578445076659982
2022-11-22,1.149824359727272
2022-11-23,1.1544079434890828
2022-11-24,1.1548383536079496
2022-11-25,1.1558261429996566
2022-11-28,1.149538727565804
2022-11-29,1.1571735680701916
2022-11-30,1.1573594507096436
2022-12-01,1.163065001248401
2022-12-02,1.1606927908802596
2022-12-05,1.1686173210002206
2022-12-06,1.1636892017532179
2022-12-07,1.1600547569293227
2022-12-08,1.1632391410039127
2022-12-09,1.1684039926923622
2022-12-12,1.16200800232037
2022-12-13,1.1629750366222862
2022-12-14,1.1643212867821024
2022-12-15,1.1596492427786835
2022-12-16,1.1611566213276847
2022-12-19,1.1585782950886578
2022-12-20,1.1546993388830489
2022-12-21,1.1546993388830489
2022-12-22,1.1546993388830489
2022-12-23,1.1546993388830489
2022-12-26,1.1546993388830489
2022-12-27,1.1546993388830489
2022-12-28,1.154616860358843
2022-12-29,1.15400329668159
2022-12-30,1.1544399339245734
2023-01-03,1.154806073305048
2023-01-04,1.1575761275096073
2023-01-05,1.1603613453870787
2023-01-06,1.1592159844448713
2023-01-09,1.1641773460698295
2023-01-10,1.1642917500612473
2023-01-11,1.1647879955374194
2023-01-12,1.1622766103383821
2023-01-13,1.1685483426697998
2023-01-16,1.170774096838915
2023-01-17,1.1717671090491542
2023-01-18,1.1723093013105388
2023-01-19,1.1744503561299415
2023-01-20,1.1826158679346648
2023-01-30,1.1864141157204915
2023-01-31,1.1775610569866042
2023-02-01,1.188744691189408
2023-02-02,1.191845026398991
2023-02-03,1.1856251091744052
2023-02-06,1.17641429806059
2023-02-07,1.1768188601609737
2023-02-08,1.1779043132576037
2023-02-09,1.1798365367204269
2023-02-10,1.1767131808764508
2023-02-13,1.1784478661389488
2023-02-14,1.1814985685584205
2023-02-15,1.1810503600733682
2023-02-16,1.1806987739134436
2023-02-17,1.1754491730187846
2023-02-20,1.176661925296447
2023-02-21,1.1768988480982154
2023-02-22,1.1743825614710877
2023-02-23,1.174640688807678
2023-02-24,1.1744398842813177
2023-02-27,1.1745075995336665
2023-02-28,1.174633933927114
2023-03-01,1.1749808682209417
2023-03-02,1.175263637596392
2023-03-03,1.1755768456497504
2023-03-06,1.1752117011149987
2023-03-07,1.1752497964879067
2023-03-08,1.1744459461392074
2023-03-09,1.1743939723728616
2023-03-10,1.1741307024674927
2023-03-13,1.1746834681042368
2023-03-14,1.1758238473278062
2023-03-15,1.1757142802835627
2023-03-16,1.176534897248968
2023-03-17,1.177073369139587
2023-03-20,1.1787016667083245
2023-03-21,1.1786361079939813
2023-03-22,1.178658132562398
2023-03-23,1.178171257447594
2023-03-24,1.1791981561655145
2023-03-27,1.1793606444325726
2023-03-28,1.1783873610248774
2023-03-29,1.1787324374735524
2023-03-30,1.1801920026151342
2023-03-31,1.1828127406604323
2023-04-03,1.1819440169742599
2023-04-04,1.1807696387695157
2023-04-06,1.1777190629439824
2023-04-07,1.1827101616568894
2023-04-10,1.1791993776476182
2023-04-11,1.1794415668455083
2023-04-12,1.1781506847004148
2023-04-13,1.173704308987555
2023-04-14,1.1772586467738542
2023-04-17,1.181103502574789
2023-04-18,1.180275701109329
2023-04-19,1.1770305075592233
2023-04-20,1.1753362920279729
2023-04-21,1.168010102076401
2023-04-24,1.167413971042909
2023-04-25,1.16820401259099
2023-04-26,1.1675636040659911
2023-04-27,1.1675069265531353
2023-04-28,1.169906159210597
2023-05-04,1.1702655013365642
2023-05-05,1.170989109062962
2023-05-08,1.1740920412051592
2023-05-09,1.1737419341055269
2023-05-10,1.1730738514010637
2023-05-11,1.1745845616630513
2023-05-12,1.1740823395586246
2023-05-15,1.1741449602116405
2023-05-16,1.1736300164825229
2023-05-17,1.1737534040810778
2023-05-18,1.1765360777438523
2023-05-19,1.1789998510748914
2023-05-22,1.1782395968829456
2023-05-23,1.1796689577994852
2023-05-24,1.1775280982369984
2023-05-25,1.1786715137090789
2023-05-26,1.1787148217612327
2023-05-29,1.1835566483396065
2023-05-30,1.1841829845325476
2023-05-31,1.183267672227204
2023-06-01,1.1834793243006503
2023-06-02,1.184861493974693
2023-06-05,1.1869411257650424
2023-06-06,1.1868517241048446
2023-06-07,1.187663796459056
2023-06-08,1.185420518906584
2023-06-09,1.1874314401540327
2023-06-12,1.1892126803582472
2023-06-13,1.19246878485722
2023-06-14,1.1912201398096116
2023-06-15,1.1935717013980085
2023-06-16,1.1979786876522691
2023-06-19,1.1950702539166007
2023-06-20,1.1939483365260288
2023-06-21,1.184074694463074
2023-06-26,1.1760362426234985
2023-06-27,1.175761990563208
2023-06-28,1.1769049562233889
2023-06-29,1.1782568931102502
2023-06-30,1.1822579801975066
2023-07-03,1.185819975785265
2023-07-04,1.1857661727704458
2023-07-05,1.1839136034542475
2023-07-06,1.1823059059663934
2023-07-07,1.1798898479200255
2023-07-10,1.1790095527161273
2023-07-11,1.1812510517500323
2023-07-12,1.1801087359368454
2023-07-13,1.1845170665133364
2023-07-14,1.1844000861015804
2023-07-17,1.1849791639666498
2023-07-18,1.1864047607366919
2023-07-19,1.1900336792892945
2023-07-20,1.1865981291618597
2023-07-21,1.1848545523250695
2023-07-24,1.184860456899618
2023-07-25,1.1832949443673477
2023-07-26,1.184022562935656
2023-07-27,1.1862180105876943
2023-07-28,1.1921557203800464
2023-07-31,1.1977262825512094
2023-08-01,1.197057602023182
2023-08-02,1.1898727566923883
2023-08-03,1.1899282701371423
2023-08-04,1.1913718552918462
2023-08-07,1.1889156050068586
2023-08-08,1.1851470848681218
2023-08-09,1.1841859350070643
2023-08-10,1.1853865490208344
2023-08-11,1.1764147340519773
2023-08-14,1.1764852714277896
2023-08-15,1.1766703751968843
2023-08-16,1.176855298852427
2023-08-17,1.1768111427894716
2023-08-18,1.1769169044497572
2023-08-21,1.177173441062617
2023-08-22,1.176980337261143
2023-08-23,1.176921968848059
2023-08-24,1.1771340286054857
2023-08-25,1.1767562881707094
2023-08-28,1.1765926083089513
2023-08-29,1.176506995850177
2023-08-30,1.1767640775904116
2023-08-31,1.1774552123481308
2023-09-01,1.1767526025826434
2023-09-04,1.1774143493352893
2023-09-05,1.1769116595978129
2023-09-06,1.1769425745534006
2023-09-07,1.175429647358617
2023-09-08,1.176631825881697
2023-09-11,1.176254008913202
2023-09-12,1.177000442615754
2023-09-13,1.1758292905593384
2023-09-14,1.1771799530101419
2023-09-15,1.1764156468789455
2023-09-18,1.176005157767031
2023-09-19,1.1771157770728797
2023-09-20,1.1779004922175356
2023-09-21,1.177297443200977
2023-09-22,1.1771795119336834
2023-09-25,1.1774497286309844
2023-09-26,1.177130160478117
2023-09-27,1.1756130174123478
2023-09-28,1.1754384368838853
2023-10-09,1.1754023365025907
2023-10-10,1.1754023365025907
2023-10-11,1.1753947775923657
2023-10-12,1.1753930976941684
2023-10-13,1.1754023287302084
2023-10-16,1.1754031678295889
2023-10-17,1.1753998083451542
2023-10-18,1.1754040039589218
2023-10-19,1.1754115557131097
2023-10-20,1.175366217556449
2023-10-23,1.1749273947362964
2023-10-24,1.174968409436832
2023-10-25,1.1746282601128504
2023-10-26,1.175164372275779
2023-10-27,1.175316057852902
2023-10-30,1.175452486385997
2023-10-31,1.175828112704722
2023-11-01,1.1755939779875597
2023-11-02,1.175931292285203
2023-11-03,1.1758692115610483
2023-11-06,1.175360672085481
2023-11-07,1.1744524893693722
2023-11-08,1.1746916806687588
2023-11-09,1.1739571495539005
2023-11-10,1.1733006935420813
2023-11-13,1.1743080136281592
2023-11-14,1.1750213260151754
2023-11-15,1.1789889899005972
2023-11-16,1.1754152350398832
2023-11-17,1.177215745035808
2023-11-20,1.1764868331616805
2023-11-21,1.1764381505265638
2023-11-22,1.1721446248512477
2023-11-23,1.1735342212996451
2023-11-24,1.1724785976174958
2023-11-27,1.171980282523735
2023-11-28,1.1726193775363978
2023-11-29,1.1721311262708556
2023-11-30,1.1714041461335258
2023-12-01,1.1714781160251497
2023-12-04,1.1720167757170803
2023-12-05,1.1692263694661988
2023-12-06,1.1698310643576053
2023-12-07,1.1692246870928047
2023-12-08,1.1700228329511384
2023-12-11,1.1701110939412813
2023-12-12,1.1700765101391244
2023-12-13,1.1715392548385781
2023-12-14,1.1732707474707031
2023-12-15,1.1722630269523542
2023-12-18,1.1733882612506237
2023-12-19,1.1742967967839422
2023-12-20,1.175112950325327
2023-12-21,1.1729798771079951
2023-12-22,1.1740462126450906
2023-12-25,1.1744096797626455
2023-12-26,1.1752884934492795
2023-12-27,1.1761075938169645
2023-12-28,1.1758182664972934
2023-12-29,1.1754938317569648
2024-01-02,1.175914657433024
2024-01-03,1.1736003966247128
2024-01-04,1.173737814113463
2024-01-05,1.1740628974385903
2024-01-08,1.1730935387235069
2024-01-09,1.1736249912720589
2024-01-10,1.1728556904300445
2024-01-11,1.1728994573150657
2024-01-12,1.1724695376853462
2024-01-15,1.1736440581720002
2024-01-16,1.1725589952438191
2024-01-17,1.1707484196724998
2024-01-18,1.1701907522458772
2024-01-19,1.1729293690006561
2024-01-22,1.1769340290305246
2024-01-23,1.1764505952090574
2024-01-24,1.1778105361839597
2024-01-25,1.17700616074774
2024-01-26,1.1758155022771786
2024-01-29,1.177280880273009
2024-01-30,1.179400234376614
2024-01-31,1.1774718442563796
2024-02-01,1.1752945220814501
2024-02-02,1.178872615141789
2024-02-05,1.1792987530874628
2024-02-06,1.1797533321628855
2024-02-07,1.1810277574405446
2024-02-08,1.186304608970886
2024-02-19,1.1874748743459747
2024-02-20,1.1880182319831591
2024-02-21,1.1900347859596792
2024-02-22,1.1952822965647885
2024-02-23,1.1989137712646538
2024-02-26,1.1920472864164067
2024-02-27,1.1981756441398312
2024-02-28,1.1878701313102131
2024-02-29,1.198537755400251
2024-03-01,1.202665365125092
2024-03-04,1.2051700541785992
2024-03-05,1.2021643627722125
2024-03-06,1.2025392612336383
2024-03-07,1.1978115356999781
2024-03-08,1.2048168375922146
2024-03-11,1.2122562043499543
2024-03-12,1.2130309990806787
2024-03-13,1.212107390591002
2024-03-14,1.2089281497788231
2024-03-15,1.2089513489836015
2024-03-18,1.2156590418571591
2024-03-19,1.2094146456878447
2024-03-20,1.2115159929639236
2024-03-21,1.2154524424697948
2024-03-22,1.2071188192820699
2024-03-25,1.2007533317732981
2024-03-26,1.203919467388315
2024-03-27,1.2023821434913977
2024-03-28,1.2053029499413903
2024-03-29,1.2063965109860444
2024-04-01,1.2081802110301214
2024-04-02,1.2074961041302552
2024-04-03,1.205264568181078
2024-04-08,1.2074237081260633
2024-04-09,1.20823271817698
2024-04-10,1.2108190962673622
2024-04-11,1.2090541310062486
2024-04-12,1.208393042845181
2024-04-15,1.2066636322280808
2024-04-16,1.203701333733397
2024-04-17,1.20443887368704
2024-04-18,1.2045320412866924
2024-04-19,1.205015593893546
2024-04-22,1.2017134603691941
2024-04-23,1.1985504348383083
2024-04-24,1.2012011545125205
2024-04-25,1.2016193719169492
2024-04-26,1.2064820996347663
2024-04-29,1.2053654874867021
2024-04-30,1.2022430957190675
2024-05-06,1.2167489586805316
2024-05-07,1.214992797631403
2024-05-08,1.2088142463508555
2024-05-09,1.217277101869443
2024-05-10,1.2179623910529058
2024-05-13,1.2181326765299316
2024-05-14,1.219295608320942
2024-05-15,1.215649299153286
2024-05-16,1.2186991297380916
2024-05-17,1.2239315355255378
2024-05-20,1.2248376005180146
2024-05-21,1.2190388272212425
2024-05-22,1.2211477038836538
2024-05-23,1.214459583952465
2024-05-24,1.2046474765096171
2024-05-27,1.2077312546463912
2024-05-28,1.2081947578609533
2024-05-29,1.2047754370784958
2024-05-30,1.2023183285650794
2024-05-31,1.201896181316567
2024-06-03,1.2014362378612786
2024-06-04,1.2017221821473465
2024-06-05,1.201078136066277
2024-06-06,1.2010008966364611
2024-06-07,1.2015733763533012
2024-06-11,1.2019660420102316
2024-06-12,1.2028585965537058
2024-06-13,1.2054104874412235
2024-06-14,1.2051378523443053
2024-06-17,1.2051282883143246
2024-06-18,1.2067734238570482
2024-06-19,1.2070143929493746
2024-06-20,1.2085110338665748
2024-06-21,1.2067945728525538
2024-06-24,1.2063864956984094
2024-06-25,1.2054755067423373
2024-06-26,1.2083742678751568
2024-06-27,1.2091831431740114
2024-06-28,1.2115469238017125
2024-07-01,1.2108367684875239
2024-07-02,1.2112428142583282
2024-07-03,1.21385715789819
2024-07-04,1.2131501411221912
2024-07-05,1.214391631780776
2024-07-08,1.2152577424196973
2024-07-09,1.2166576172337826
2024-07-10,1.2137476500106965
2024-07-11,1.2153047788384166
2024-07-12,1.210890010114527
2024-07-15,1.213100354167878
2024-07-16,1.2121553482234422
2024-07-17,1.2136842973276987
2024-07-18,1.2113747152694545
2024-07-19,1.203658270755915
2024-07-22,1.204219312232319
2024-07-23,1.1993449716388647
2024-07-24,1.1986823181648865
2024-07-25,1.195307593006214
2024-07-26,1.1954799360786197
2024-07-29,1.1955287898344658
2024-07-30,1.1955830648499306
2024-07-31,1.1957003097898367
2024-08-01,1.1953919052726494
2024-08-02,1.1943462973455574
2024-08-05,1.1923438054718376
2024-08-06,1.193041432826566
2024-08-07,1.1933795330503545
2024-08-08,1.193027185276331
2024-08-09,1.1919722336920213
2024-08-12,1.1905801969976546
2024-08-13,1.1908256490340565
2024-08-14,1.1899275347452827
2024-08-15,1.1898807897351371
2024-08-16,1.1898807897351371
2024-08-19,1.189795798250156
2024-08-20,1.189120040678254
2024-08-21,1.188865434969388
2024-08-22,1.1886793781520648
2024-08-23,1.1875153999764645
2024-08-26,1.1877660501371685
2024-08-27,1.1869001453206227
2024-08-28,1.1871179505055516
2024-08-29,1.1840483965179252
2024-08-30,1.1852723687602418
2024-09-02,1.1841511471296662
2024-09-03,1.1841406154370089
2024-09-04,1.1797471877808436
2024-09-05,1.1795654575960794
2024-09-06,1.1795517453609066
2024-09-09,1.179650019911485
2024-09-10,1.1798142566336562
2024-09-11,1.1800113552271287
2024-09-12,1.1796501885989283
2024-09-13,1.1811582414866442
2024-09-18,1.1812591765527118
2024-09-19,1.1808901596882029
2024-09-20,1.1823623010808382
2024-09-23,1.1836047726639494
2024-09-24,1.1856663734315311
2024-09-25,1.19139836324386
2024-09-26,1.2213752264980544
2024-09-27,1.2580360400566615
2024-09-30,1.3202506341633098
2024-10-08,1.3502409389739423
2024-10-09,1.2992041595514907
2024-10-10,1.3088131845667317
2024-10-11,1.2922950230320582
2024-10-14,1.3062571575174102
2024-10-15,1.2914873875045416
2024-10-16,1.2911768427087076
2024-10-17,1.2876822753168722
2024-10-18,1.3072232334147853
2024-10-21,1.3071101277988735
2024-10-22,1.309046303266766
2024-10-23,1.3136044040779704
2024-10-24,1.3039422888589587
2024-10-25,1.31061210552016
2024-10-28,1.3163676234428006
2024-10-29,1.3125818034604941
2024-10-30,1.3110153247788598
2024-10-31,1.3098781992106778
2024-11-01,1.3033461791355045
2024-11-04,1.308404317816856
2024-11-05,1.3211138885845695
2024-11-06,1.317393186938193
2024-11-07,1.3326975024711105
2024-11-08,1.3290008080939013
2024-11-11,1.3342839963357642
2024-11-12,1.3268046053581162
2024-11-13,1.3264681404971934
2024-11-14,1.3175624178902698
2024-11-15,1.305167863957038
2024-11-18,1.2994451479526952
2024-11-19,1.3021629305961118
2024-11-20,1.3041768955791668
2024-11-21,1.3037323741160802
2024-11-22,1.2975254414216286
2024-11-25,1.300747924591539
2024-11-26,1.3010222589670466
2024-11-27,1.30104529267311
2024-11-28,1.300614353984257
2024-11-29,1.300998263876975
2024-12-02,1.3026161319160063
2024-12-03,1.3051283455182487
2024-12-04,1.3057791532071064
2024-12-05,1.3072651663614065
2024-12-06,1.3074983033431422
2024-12-09,1.309268146488414
2024-12-10,1.3083142530756793
2024-12-11,1.30714385626554
2024-12-12,1.3130979616937273
2024-12-13,1.305777737693327
2024-12-16,1.303210314035716
2024-12-17,1.2989402831020516
2024-12-18,1.3001198096463948
2024-12-19,1.2934575351367836
2024-12-20,1.2911808400347455
2024-12-23,1.2940113210130668
2024-12-24,1.29568114349386
2024-12-25,1.296181890043289
2024-12-26,1.2964412226874202
2024-12-27,1.295383337005976
2024-12-30,1.2942332900587246
2024-12-31,1.2912787279435722
2025-01-02,1.2881339741584752
2025-01-03,1.2873418026395846
2025-01-06,1.2894263947547666
2025-01-07,1.2886062312872795
2025-01-08,1.2876820918477963
2025-01-09,1.2869800733936316
2025-01-10,1.2870852791784027
2025-01-13,1.284977786715018
2025-01-14,1.2843231755261832
2025-01-15,1.2851102955185747
2025-01-16,1.2852996410306046
2025-01-17,1.2854365648769486
2025-01-20,1.285143524115482
2025-01-21,1.285162844122371
2025-01-22,1.2859686085232416
2025-01-23,1.285402956415415
2025-01-24,1.2861116157717447
2025-01-27,1.2849917772088082
2025-02-05,1.2936118582597136
2025-02-06,1.2953162954721023
2025-02-07,1.3014985384232987
2025-02-10,1.3100123109757287
2025-02-11,1.3071801563812853
2025-02-12,1.3165674317256366
2025-02-13,1.3184081994298307
2025-02-14,1.3264738645714858
2025-02-17,1.3276207411678727
2025-02-18,1.3246647874311694
2025-02-19,1.3320114956012785
2025-02-20,1.3286071307531502
2025-02-21,1.343545204304309
2025-02-24,1.343326307859616
2025-02-25,1.3331853468934405
2025-02-26,1.3460292973415224
2025-02-27,1.3435267120215253
2025-02-28,1.3226474904738343
2025-03-03,1.3229869733977753
2025-03-04,1.326086842173102
2025-03-05,1.3307670590379659
2025-03-06,1.3425488225228523
2025-03-07,1.3411652406870285
2025-03-10,1.3375807266714455
2025-03-11,1.3367957803260948
2025-03-12,1.335871817674221
2025-03-13,1.3321172843685192
2025-03-14,1.3412679836689338
2025-03-17,1.3418302670544235
2025-03-18,1.3484627905610174
2025-03-19,1.3489307532673935
2025-03-20,1.3409897295193443
2025-03-21,1.3308816934489736
2025-03-24,1.332818777736825
2025-03-25,1.3295886181489307
2025-03-26,1.3292752615725667
2025-03-27,1.3309179040815844
2025-03-28,1.3307204395891772
2025-03-31,1.3298542470384722
2025-04-01,1.3309102570744809
2025-04-02,1.3308733677474525
2025-04-03,1.3317534855217508
2025-04-07,1.325918979177806
2025-04-08,1.3262235857935005
2025-04-09,1.3275346239219201
2025-04-10,1.329680933044957
2025-04-11,1.331135903159
2025-04-14,1.3317793625182093
2025-04-15,1.3318090899166142
2025-04-16,1.3343237596848105
2025-04-17,1.3350395372242545
2025-04-18,1.3351549055143463
2025-04-21,1.3366703172056014
2025-04-22,1.3399362864064541
2025-04-23,1.3340563636834404
2025-04-24,1.3349939575274508
2025-04-25,1.3343275166883808
2025-04-28,1.3335225637314405
2025-04-29,1.3341504073128392
2025-04-30,1.333576603156097
2025-05-06,1.3352856036201595
2025-05-07,1.336200615310257
2025-05-08,1.3373182635155547
2025-05-09,1.3344387058876885
2025-05-12,1.342715357507412
2025-05-13,1.3419411879214382
2025-05-14,1.3554332964118738
2025-05-15,1.3465497671892506
2025-05-16,1.3436273712304179
2025-05-19,1.3427488326268473
2025-05-20,1.3496494739543379
2025-05-21,1.3500633731529625
2025-05-22,1.3434433156481538
2025-05-23,1.3376412965656537
2025-05-26,1.3342673854647795
2025-05-27,1.3346230348440393
2025-05-28,1.335955131409571
2025-05-29,1.3381807593417803
2025-05-30,1.334877159175619
2025-06-03,1.3355300207827665
2025-06-04,1.3372249792508943
2025-06-05,1.3367461542331611
2025-06-06,1.3363040982351608
2025-06-09,1.3389465846357762
2025-06-10,1.337573310063252
2025-06-11,1.340537312197207
2025-06-12,1.3390972325613792
2025-06-13,1.3350426107703413
2025-06-16,1.337275628987746
2025-06-17,1.3360747335628793
2025-06-18,1.3347933886504444
2025-06-19,1.3298975755876323
2025-06-20,1.3296606807013047
2025-06-23,1.3298504826786066
2025-06-24,1.3301406616093463
2025-06-25,1.3357957087594245
2025-06-26,1.3340548187695875
2025-06-27,1.335237710245527
2025-06-30,1.3399827680574419
2025-07-01,1.3402983098536878
2025-07-02,1.3395551956553748
2025-07-03,1.3421853443916276
2025-07-04,1.343163571388016
2025-07-07,1.3414042000338697
2025-07-08,1.3480527803211741
2025-07-09,1.3461327975063697
2025-07-10,1.3498863941142638
2025-07-11,1.3531051054291936
2025-07-14,1.3512014133751038
2025-07-15,1.3546656848615768
2025-07-16,1.35362867597873
2025-07-17,1.3590043159572287
2025-07-18,1.3644250766517185
2025-07-21,1.370080494463874
2025-07-22,1.375027057748367
2025-07-23,1.3801660562744105
2025-07-24,1.3856091793883132
2025-07-25,1.3814607240172985
2025-07-28,1.3866672948964762
2025-07-29,1.3886149516828965
2025-07-30,1.383695460929724
2025-07-31,1.3763457820044345
2025-08-01,1.3717310749692853
2025-08-04,1.3719457404854918
2025-08-05,1.3766839478142554
2025-08-06,1.3797095318011485
2025-08-07,1.3793360985655037
2025-08-08,1.3759907057562686
2025-08-11,1.3816324332597794
2025-08-12,1.3839810092775977
2025-08-13,1.395014061127156
2025-08-14,1.3908909786807406
2025-08-15,1.3988895363105707
2025-08-18,1.405003845499846
2025-08-19,1.4018041351953614
2025-08-20,1.4052550854164474
2025-08-21,1.4024377329526572
2025-08-22,1.4140506995001318
2025-08-25,1.42977012263365
2025-08-26,1.4257163605252088
2025-08-27,1.4158563001357154
2025-08-28,1.423929429018551
2025-08-29,1.4278179395411918
2025-09-01,1.4362302591415799
2025-09-02,1.4286664109497433
2025-09-03,1.424709533995174
2025-09-04,1.4136183513097274
2025-09-05,1.4259765505657358
2025-09-08,1.4278794343672494
2025-09-09,1.4273827471304221
2025-09-10,1.4303753042222547
2025-09-11,1.4391942242586564
2025-09-12,1.4398603975653386
2025-09-15,1.4417393769910907
2025-09-16,1.4465618962060096
2025-09-17,1.453447346466959
2025-09-18,1.4433781464418722
2025-09-19,1.4438684997610194
2025-09-22,1.4494189033789895
2025-09-23,1.44970051017176
2025-09-24,1.4616235451193613
2025-09-25,1.4625414411118858
2025-09-26,1.4537565615076953
2025-09-29,1.4674863320922953
2025-09-30,1.4736257970307547
2025-10-09,1.4858954163069675
2025-10-10,1.46895911278215
2025-10-13,1.4602950291713224
2025-10-14,1.4539103832962565
2025-10-15,1.4608520485488374
2025-10-16,1.4631192029234064
2025-10-17,1.4584941386860202
2025-10-20,1.4585763956119593
2025-10-21,1.4625606848048114
2025-10-22,1.4590602781178652
2025-10-23,1.4589253080424438
2025-10-24,1.4600651914327882
2025-10-27,1.4659596992834294
2025-10-28,1.4621081516383065
2025-10-29,1.4673329202498724
2025-10-30,1.4638495547590236
2025-10-31,1.4582791172399299
2025-11-03,1.46043690241762
2025-11-04,1.453654292564287
2025-11-05,1.4521288664576406
2025-11-06,1.4584707796113245
2025-11-07,1.4562638391417582
2025-11-10,1.4596051885010417
2025-11-11,1.4571844524806288
2025-11-12,1.4611004981122562
2025-11-13,1.464387074277245
2025-11-14,1.4539310344054535
2025-11-17,1.4511017712838488
2025-11-18,1.4446901622358972
2025-11-19,1.4423188643456142
2025-11-20,1.4421246202244047
2025-11-21,1.440586131432176
2025-11-24,1.4405976116459531
2025-11-25,1.4405997639629429
2025-11-26,1.4404392653668618
2025-11-27,1.4404392653668618
2025-11-28,1.4404392653668618
2025-12-01,1.4404392653668618
2025-12-02,1.4404392653668618
2025-12-03,1.4404392653668618
2025-12-04,1.4404392653668618
2025-12-05,1.4404392653668618
2025-12-08,1.4404392653668618
2025-12-09,1.4403878211073846
2025-12-10,1.4405286166729274
2025-12-11,1.4389852456958256
2025-12-12,1.4398180548216604
2025-12-15,1.4394078732355748
2025-12-16,1.436208615804706
2025-12-17,1.4405491066747391
2025-12-18,1.4383398886037497
2025-12-19,1.4387759437325813
2025-12-22,1.4442292224152822
2025-12-23,1.4462566326716557
2025-12-24,1.4486543798252254
2025-12-25,1.4502317174240595
2025-12-26,1.4529353590174972
2025-12-29,1.4495941708827909
2025-12-30,1.4488240580275682
2025-12-31,1.446330557354555
2026-01-05,1.4577886446075246
2026-01-06,1.4650398067058235
2026-01-07,1.4639549350924324
2026-01-08,1.461361494122303
2026-01-09,1.468566531868458
2026-01-12,1.4776131609218093
2026-01-13,1.4724272188423464
2026-01-14,1.4757888400377208
2026-01-15,1.4724959958581374
2026-01-16,1.4695571971103882
2026-01-19,1.468675909314414
2026-01-20,1.4647361474339804
2026-01-21,1.4706805455402636
2026-01-22,1.471853151478722
2026-01-23,1.481473153645935
2026-01-26,1.4801438131640745
2026-01-27,1.4837447925562188
2026-01-28,1.4937010945554272
2026-01-29,1.4984136379046282
2026-01-30,1.483306795218284
2026-02-02,1.4545604805305012
2026-02-03,1.4556151987572472
2026-02-04,1.457980551067498
2026-02-05,1.457446847235337
2026-02-06,1.4563415055827778
2026-02-09,1.4568525706397641
2026-02-10,1.4571429174976807
2026-02-11,1.457859727436942
2026-02-12,1.457861525654913
2026-02-13,1.4569203310747845
2026-02-24,1.4580565888854047
2026-02-25,1.4578548745076652
2026-02-26,1.4573738067995186
2026-02-27,1.4571923860454354
2026-03-02,1.4571507571851163
2026-03-03,1.4480908861113757
2026-03-04,1.446149192089365
2026-03-05,1.445817405465353
2026-03-06,1.4457466054564243
2026-03-09,1.4458933673024201
2026-03-10,1.4450631629276287
2026-03-11,1.445960983855924
2026-03-12,1.4474259007861296
2026-03-13,1.4470871847504891
2026-03-16,1.4460687664610599
2026-03-17,1.4431798563666816
2026-03-18,1.4449552780520698
2026-03-19,1.4440366639903186
2026-03-20,1.445046839854604
2026-03-23,1.4401895293472675
2026-03-24,1.4404675794513881
2026-03-25,1.4427141464582458
2026-03-26,1.441326433609874
2026-03-27,1.4422109501971172
2026-03-30,1.441372031441412
2026-03-31,1.4387618336148156
2026-04-01,1.4386771378243501
2026-04-02,1.438694928151087
2026-04-03,1.438690505099842
2026-04-07,1.4386660689500421
2026-04-08,1.4385572644271665
2026-04-09,1.4369567653897155
2026-04-10,1.4371492247411
2026-04-13,1.4375540672249503
2026-04-14,1.441596117719471
2026-04-15,1.4435302059857125
2026-04-16,1.4513379488414346
2026-04-17,1.4523331427466872
2026-04-20,1.4548010687233595
2026-04-21,1.4552173237530528
2026-04-22,1.4587078292349054
2026-04-23,1.4533404640257173
2026-04-24,1.4495518039190924
2026-04-27,1.450795510998367
2026-04-28,1.4465413693999447
2026-04-29,1.4545896408745402
2026-04-30,1.4556364039700929
2026-05-06,1.4694075095607924
2026-05-07,1.4767005880075985
2026-05-08,1.4745272613689304
2026-05-11,1.4866939866832716
2026-05-12,1.4834459297314084
2026-05-13,1.4918844687267188
2026-05-14,1.4827845061231677
2026-05-15,1.475798590838465
2026-05-18,1.4693383054876512
2026-05-19,1.4708639331072293
2026-05-20,1.4719631084400184
2026-05-21,1.464365026613906
2026-05-22,1.4692175944977217
2026-05-25,1.4756498464699255
2026-05-26,1.4734030974022256
2026-05-27,1.4759739562988141
2026-05-28,1.4771231568271048
2026-05-29,1.4792365334457356
2026-06-01,1.4840637697130339
2026-06-02,1.4854011679947723
2026-06-03,1.4849154545699703
2026-06-04,1.4795802096102466
2026-06-05,1.4746543702748713
2026-06-08,1.4634446651108761
2026-06-09,1.462992042148244
2026-06-10,1.4621433467259608
2026-06-11,1.4621103854322635
2026-06-12,1.4630327154900866
2026-06-15,1.4618369290396063
2026-06-16,1.4618369290396063
2026-06-17,1.461784720577855
2026-06-18,1.4637842180718836
2026-06-22,1.4714188131748456
2026-06-23,1.4580964179256466
2026-06-24,1.4633563410507706
2026-06-25,1.4707110954862577
2026-06-26,1.457337912109541
2026-06-29,1.4620601235190458
2026-06-30,1.4714277584366255
2026-07-01,1.4686157625482226
2026-07-02,1.45235712623629
2026-07-03,1.4533336872397002
2026-07-06,1.4513734478287228
2026-07-07,1.4504551176927172
2026-07-08,1.4504570720703616
2026-07-09,1.4526192654453438
2026-07-10,1.4517882848956827
2026-07-13,1.4505205613731662
2026-07-14,1.4517973789362768
2026-07-15,1.4518992198336151
2026-07-16,1.4536449875651938
2026-07-17,1.445153531711053
2026-07-20,1.4513722851750546
2026-07-21,1.4502797705115147
2026-07-22,1.4456255814780248
2026-07-23,1.4475113539221314
2026-07-24,1.4446604849069096
2026-07-27,1.4464429775687049
2026-07-28,1.4466836793455204
2026-07-29,1.4495742998903363
2026-07-30,1.4508436017295951
2026-07-31,1.4502041353644306
2026-08-03,1.4505647878847028
2026-08-04,1.4487743030691171
2026-08-05,1.4566561091665056
2026-08-06,1.4551605499234885
2026-08-07,1.4578706030249273
2026-08-10,1.4621186885011015
2026-08-11,1.4585572709297743
2026-08-12,1.4560563879650332
2026-08-13,1.4534055859628896
2026-08-14,1.4572675855010084
2026-08-17,1.457995278736158
2026-08-18,1.4535002535214387
2026-08-19,1.4304811506051058
2026-08-20,1.4345790820372661
2026-08-21,1.4366140211887541
2026-08-24,1.4384421505030232
2026-08-25,1.4374861977973985
2026-08-26,1.4378236746046282
2026-08-27,1.4371464952748878
2026-08-28,1.4375958552182262
2026-08-31,1.4345047801961837
2026-09-01,1.4342136701003962
2026-09-02,1.4306747866736258
2026-09-03,1.4308814948009472
2026-09-04,1.4309561160942235
2026-09-07,1.4299119377206306
2026-09-08,1.4299136877886602
2026-09-09,1.4298898876077781
2026-09-10,1.4293710337333418
2026-09-11,1.4282399940557067
2026-09-14,1.4279253671856835
2026-09-15,1.4274851434684497
2026-09-16,1.4274996899774592
2026-09-17,1.4275174434847484
2026-09-18,1.4274977400323523
2026-09-21,1.4280856422783041
2026-09-22,1.429503964028285
2026-09-23,1.4301041362421036
2026-09-24,1.427756365670779
2026-09-28,1.427360579190056
2026-09-29,1.4285125255594069
2026-09-30,1.4285237410895295
