date,equity
2017-01-18,1.0
2017-01-19,1.0
2017-01-20,1.0
2017-01-23,1.0
2017-01-24,1.0
2017-01-25,1.0
2017-01-26,1.0
2017-02-03,1.0
2017-02-06,1.0
2017-02-07,1.0
2017-02-08,1.0
2017-02-09,1.0
2017-02-10,1.0
2017-02-13,1.0
2017-02-14,1.0
2017-02-15,1.0
2017-02-16,1.0
2017-02-17,1.0
2017-02-20,1.0
2017-02-21,1.0
2017-02-22,0.9997777777777778
2017-02-23,0.9986902844882265
2017-02-24,0.9982938677910315
2017-02-27,0.9949606954296365
2017-02-28,0.9948110056997158
2017-03-01,0.994567261001319
2017-03-02,0.9957371956635871
2017-03-03,0.9933964799477519
2017-03-06,0.9994338894265711
2017-03-07,0.9988271224427674
2017-03-08,0.9970769468094154
2017-03-09,0.9933826619575797
2017-03-10,0.9944665159939562
2017-03-13,0.9978557130920594
2017-03-14,0.9972473188824991
2017-03-15,0.9968693553603915
2017-03-16,0.9993256225144277
2017-03-17,0.9969784635462352
2017-03-20,1.000333813131268
2017-03-21,1.003693097578842
2017-03-22,0.9937969444390753
2017-03-23,0.994343384363028
2017-03-24,0.9965876396985732
2017-03-27,0.9921093256343415
2017-03-28,0.9930821726028494
2017-03-29,0.9919416656145394
2017-03-30,0.9879435396438434
2017-03-31,0.9877473044808083
2017-04-05,0.9896160702179094
2017-04-06,0.9886296827346099
2017-04-07,0.9895982398424814
2017-04-10,0.9899008436791589
2017-04-11,0.9911929415360993
2017-04-12,0.9905607780860816
2017-04-13,0.9922803487238083
2017-04-14,0.9894394745861484
2017-04-17,0.9872531090823583
2017-04-18,0.9863478518691492
2017-04-19,0.983331759977801
2017-04-20,0.9836733639998461
2017-04-21,0.9847029308881251
2017-04-24,0.9853525742432269
2017-04-25,0.9869830700247457
2017-04-26,0.9895238827305172
2017-04-27,0.9882072566690309
2017-04-28,0.9893298761374963
2017-05-02,0.9909759872781081
2017-05-03,0.9914958957998454
2017-05-04,0.9902369110007287
2017-05-05,0.9873521844683406
2017-05-08,0.9926381228556191
2017-05-09,0.9975483814831099
2017-05-10,0.9995489627678088
2017-05-11,0.9997293028270228
2017-05-12,0.9987751810943667
2017-05-15,1.0032127775600341
2017-05-16,1.002104808555271
2017-05-17,1.0036275199841784
2017-05-18,0.9988021882211141
2017-05-19,0.999206484505898
2017-05-22,1.0044142853017262
2017-05-23,1.0071677102220369
2017-05-24,1.0035722318391083
2017-05-25,1.0041294461818067
2017-05-26,1.0038885635825574
2017-05-31,1.0011778658611532
2017-06-01,0.9997637075629523
2017-06-02,1.002692627485514
2017-06-05,1.0017294058387325
2017-06-06,1.0033582978970121
2017-06-07,1.0044088859950606
2017-06-08,1.0053059942499014
2017-06-09,1.0051846680689653
2017-06-12,1.0021316134877971
2017-06-13,1.001505455445992
2017-06-14,1.0003348710173008
2017-06-15,0.9989467674632584
2017-06-16,0.9982432297973948
2017-06-19,1.0003400925717356
2017-06-20,1.0004777260538278
2017-06-21,1.0025413049309653
2017-06-22,0.9990068367031298
2017-06-23,1.0014611491938599
2017-06-26,1.0061591437343456
2017-06-27,1.0059225496503685
2017-06-28,1.0038185317956472
2017-06-29,1.0057206703099544
2017-06-30,1.005997511896318
2017-07-03,1.0072389261321428
2017-07-04,1.004986998812557
2017-07-05,1.0078702958417114
2017-07-06,1.0072536203535516
2017-07-07,1.0077625654479796
2017-07-10,1.0052714404585061
2017-07-11,1.004993535684102
2017-07-12,1.0044380008327738
2017-07-13,1.0071438727504418
2017-07-14,1.0071822575333576
2017-07-17,1.00667581156593
2017-07-18,1.006253705344328
2017-07-19,1.0133053438661226
2017-07-20,1.0134965592521015
2017-07-21,1.0130545435718568
2017-07-24,1.0141523952357072
2017-07-25,1.0142112207605176
2017-07-26,1.0137776935731857
2017-07-27,1.0192450055244144
2017-07-28,1.016910399300009
2017-07-31,1.0220286187109873
2017-08-01,1.0247835034233197
2017-08-02,1.0253125512112473
2017-08-03,1.0186309299121648
2017-08-04,1.0171276154248425
2017-08-07,1.0215008966602392
2017-08-08,1.0240141459863787
2017-08-09,1.0229179444132628
2017-08-10,1.0197868032823312
2017-08-11,1.0084183831072546
2017-08-14,1.0081633394504874
2017-08-15,1.0078044682634852
2017-08-16,1.0090876170232352
2017-08-17,1.0109585581712468
2017-08-18,1.0097503346336152
2017-08-21,1.0106948197963368
2017-08-22,1.0093740218786444
2017-08-23,1.0079852737565702
2017-08-24,1.0063485730083748
2017-08-25,1.008682450111102
2017-08-28,1.01415572734565
2017-08-29,1.0138970838392753
2017-08-30,1.014116860377674
2017-08-31,1.0145891373508544
2017-09-01,1.0174799295440489
2017-09-04,1.0206005853284883
2017-09-05,1.0210076015508727
2017-09-06,1.0224474148113358
2017-09-07,1.0197915851790933
2017-09-08,1.019734641968356
2017-09-11,1.021909430671342
2017-09-12,1.020606836274986
2017-09-13,1.0218344841377887
2017-09-14,1.0202825394952957
2017-09-15,1.0199498931817026
2017-09-18,1.0238310206450967
2017-09-19,1.0236050096349474
2017-09-20,1.0255054377978188
2017-09-21,1.0217071497059036
2017-09-22,1.0189262490584023
2017-09-25,1.016576001952308
2017-09-26,1.0144923516794058
2017-09-27,1.015222951090815
2017-09-28,1.016009992364024
2017-09-29,1.0162590789396195
2017-10-09,1.0207999450403196
2017-10-10,1.0213896053932867
2017-10-11,1.0232011815440951
2017-10-12,1.0249959932215496
2017-10-13,1.0253186529770892
2017-10-16,1.0228231036678452
2017-10-17,1.0242177523632021
2017-10-18,1.0231831830248388
2017-10-19,1.022481775176471
2017-10-20,1.0229887546419973
2017-10-23,1.0225143043039129
2017-10-24,1.021201577208635
2017-10-25,1.022218549131866
2017-10-26,1.0229712190062552
2017-10-27,1.0228032709465333
2017-10-30,1.022220688067988
2017-10-31,1.0221206262493379
2017-11-01,1.0224379518910771
2017-11-02,1.0221522277441646
2017-11-03,1.0220452345815145
2017-11-06,1.0235125023375589
2017-11-07,1.0250445837607063
2017-11-08,1.0250082507811296
2017-11-09,1.0268274849472552
2017-11-10,1.0279323354166385
2017-11-13,1.0287030228492418
2017-11-14,1.0268962287074581
2017-11-15,1.0225662594877691
2017-11-16,1.0240300952884827
2017-11-17,1.023026173395985
2017-11-20,1.0251698759023018
2017-11-21,1.031246711857272
2017-11-22,1.0337098688022148
2017-11-23,1.0278909146820923
2017-11-24,1.0289251317729327
2017-11-27,1.0275780553365925
2017-11-28,1.0247044602735034
2017-11-29,1.0260391396979447
2017-11-30,1.0196048373252826
2017-12-01,1.017943433668168
2017-12-04,1.018952849801847
2017-12-05,1.0158891408453503
2017-12-06,1.0137756466422752
2017-12-07,1.0143838670872467
2017-12-08,1.014297163657599
2017-12-11,1.014276811906072
2017-12-12,1.0142211034367346
2017-12-13,1.0142328826233715
2017-12-14,1.014267146163416
2017-12-15,1.014294977764299
2017-12-18,1.0143114024024749
2017-12-19,1.0151526725556943
2017-12-20,1.0148987751896406
2017-12-21,1.0141356409870534
2017-12-22,1.0146789110754033
2017-12-25,1.0142119272193149
2017-12-26,1.0142322193011355
2017-12-27,1.0129999467948112
2017-12-28,1.0119499124312976
2017-12-29,1.0118936929917182
2018-01-02,1.0123475478827941
2018-01-03,1.0144748554594725
2018-01-04,1.0169886709298608
2018-01-05,1.017152315980017
2018-01-08,1.021261648661584
2018-01-09,1.0247657198659392
2018-01-10,1.0251314193788839
2018-01-11,1.0239489011617635
2018-01-12,1.0277037094284598
2018-01-15,1.0207575297238989
2018-01-16,1.0238521365461766
2018-01-17,1.0213287288356323
2018-01-18,1.0241507656216275
2018-01-19,1.0228802636661083
2018-01-22,1.0256373527247726
2018-01-23,1.0310500273814407
2018-01-24,1.0341978015604698
2018-01-25,1.0309342169403495
2018-01-26,1.0339046488715866
2018-01-29,1.0307174183521208
2018-01-30,1.0232990294971014
2018-01-31,1.0178110193489838
2018-02-01,1.015669271024047
2018-02-02,1.0134478582012225
2018-02-05,1.0093372119930912
2018-02-06,1.0093223773791558
2018-02-07,1.0093911992671343
2018-02-08,1.0093827259726598
2018-02-09,1.0097531281567456
2018-02-12,1.009885027372702
2018-02-13,1.0098268125907195
2018-02-14,1.0098722299419813
2018-02-22,1.0096176303427546
2018-02-23,1.0095799290224672
2018-02-26,1.0096072333806347
2018-02-27,1.0097349054999452
2018-02-28,1.0099007366758017
2018-03-01,1.01016252110723
2018-03-02,1.0102648057451171
2018-03-05,1.0102712805391547
2018-03-06,1.0101531305404492
2018-03-07,1.0091594503393237
2018-03-08,1.0096613535283236
2018-03-09,1.0140796720690892
2018-03-12,1.0166713851573206
2018-03-13,1.0155784029160493
2018-03-14,1.0087107606300951
2018-03-15,1.009839319427458
2018-03-16,1.0091724225923575
2018-03-19,1.0108873715570692
2018-03-20,1.0098564766724927
2018-03-21,1.0056749122979167
2018-03-22,1.0027480702511768
2018-03-23,0.9913890169843411
2018-03-26,0.9917285992939996
2018-03-27,0.9914858868677262
2018-03-28,0.9908292391145008
2018-03-29,0.9892068356719275
2018-03-30,0.9895250435387318
2018-04-02,0.9894845603137379
2018-04-03,0.9888832023365446
2018-04-04,0.986779854369354
2018-04-09,0.9870324308039485
2018-04-10,0.9868534312333642
2018-04-11,0.9873073991427151
2018-04-12,0.9871131180607868
2018-04-13,0.9864829474887202
2018-04-16,0.9872161473271627
2018-04-17,0.987289343654529
2018-04-18,0.9876366807810614
2018-04-19,0.9876852389843209
2018-04-20,0.9870521236757965
2018-04-23,0.9864776163347616
2018-04-24,0.9862482694964244
2018-04-25,0.9863414540932296
2018-04-26,0.9863080247387072
2018-04-27,0.9863566192218006
2018-05-02,0.9862167392105843
2018-05-03,0.9852006668196216
2018-05-04,0.9835943604309638
2018-05-07,0.9834659359841583
2018-05-08,0.9852156889962388
2018-05-09,0.9858151361769811
2018-05-10,0.9902373590929855
2018-05-11,0.9907383744073325
2018-05-14,0.9916037956615521
2018-05-15,0.9930826845237223
2018-05-16,0.9885343410291696
2018-05-17,0.9890993984842829
2018-05-18,0.9909354269641215
2018-05-21,0.9947454067160046
2018-05-22,0.9922094591276645
2018-05-23,0.9843850783382257
2018-05-24,0.9843486666873427
2018-05-25,0.9806658239077816
2018-05-28,0.9821771948002987
2018-05-29,0.9810363002213209
2018-05-30,0.9782291934014569
2018-05-31,0.9796450665328492
2018-06-01,0.9792219255817616
2018-06-04,0.9813978407155798
2018-06-05,0.9825397073841843
2018-06-06,0.9837560397064171
2018-06-07,0.9864900999515064
2018-06-08,0.981531573770951
2018-06-11,0.9843789968646484
2018-06-12,0.9858210154424063
2018-06-13,0.9854841388042294
2018-06-14,0.9816876190343307
2018-06-15,0.9862364582846767
2018-06-19,0.9786039813240586
2018-06-20,0.9807002167769856
2018-06-21,0.9831143795471714
2018-06-22,0.9828107874411737
2018-06-25,0.9800591634186363
2018-06-26,0.975593837128236
2018-06-27,0.9748078492660964
2018-06-28,0.9745000675842967
2018-06-29,0.9751176421494981
2018-07-02,0.9751036873940991
2018-07-03,0.9750349025124957
2018-07-04,0.9752069527623553
2018-07-05,0.9751672214132727
2018-07-06,0.9751719873238185
2018-07-09,0.9750447249054734
2018-07-10,0.9762245169700517
2018-07-11,0.9740870023187762
2018-07-12,0.975110396096178
2018-07-13,0.9763027885679828
2018-07-16,0.9756602374759938
2018-07-17,0.9747032718423474
2018-07-18,0.9753780912119224
2018-07-19,0.9746375849704207
2018-07-20,0.9762450299969023
2018-07-23,0.9763830463995774
2018-07-24,0.9827069583655099
2018-07-25,0.9836232199863424
2018-07-26,0.9794085173372195
2018-07-27,0.9778256464232801
2018-07-30,0.969974451307152
2018-07-31,0.9682116102527225
2018-08-01,0.9643873873978396
2018-08-02,0.9588791789817572
2018-08-03,0.9620150168274102
2018-08-06,0.9648598806336142
2018-08-07,0.9643424471460906
2018-08-08,0.9624793627385309
2018-08-09,0.9609583037595572
2018-08-10,0.9604352996264796
2018-08-13,0.9600985633668825
2018-08-14,0.9611440232731441
2018-08-15,0.9619555733983476
2018-08-16,0.9599826664949724
2018-08-17,0.9603834836151386
2018-08-20,0.9597309052693542
2018-08-21,0.9597309052693542
2018-08-22,0.9597309052693542
2018-08-23,0.9597309052693542
2018-08-24,0.9597309052693542
2018-08-27,0.9597309052693542
2018-08-28,0.9597309052693542
2018-08-29,0.9597309052693542
2018-08-30,0.9597309052693542
2018-08-31,0.9597309052693542
2018-09-03,0.9597309052693542
2018-09-04,0.9597309052693542
2018-09-05,0.9597309052693542
2018-09-06,0.9597309052693542
2018-09-07,0.9597309052693542
2018-09-10,0.9597309052693542
2018-09-11,0.9597309052693542
2018-09-12,0.9597309052693542
2018-09-13,0.9597309052693542
2018-09-14,0.9596775868857281
2018-09-17,0.9591152767684707
2018-09-18,0.9592765500589088
2018-09-19,0.9593570783398132
2018-09-20,0.9594777896629606
2018-09-21,0.9596656651381948
2018-09-25,0.958044527068555
2018-09-26,0.9596304635596689
2018-09-27,0.958631670998963
2018-09-28,0.9590464170125539
2018-10-08,0.9531070242327031
2018-10-09,0.9533927606406822
2018-10-10,0.9528981237892429
2018-10-11,0.9464714336688895
2018-10-12,0.9480784523402921
2018-10-15,0.9491990939783993
2018-10-16,0.9491476698256633
2018-10-17,0.9488933679104596
2018-10-18,0.9492349910758532
2018-10-19,0.9497365266161171
2018-10-22,0.9493249800573211
2018-10-23,0.949890530558498
2018-10-24,0.9499490757162846
2018-10-25,0.9504133861920576
2018-10-26,0.9503348815683037
2018-10-29,0.9501930994585999
2018-10-30,0.9499236151187005
2018-10-31,0.9490758430317296
2018-11-01,0.9493893382694059
2018-11-02,0.949165817853483
2018-11-05,0.9492044176331137
2018-11-06,0.9492815920745741
2018-11-07,0.9492674163357268
2018-11-08,0.9489822708770373
2018-11-09,0.9486354451331208
2018-11-12,0.9487501087481752
2018-11-13,0.9526542362290846
2018-11-14,0.9518567665196834
2018-11-15,0.9555709640694237
2018-11-16,0.9560691802257182
2018-11-19,0.955470253675388
2018-11-20,0.947522889384821
2018-11-21,0.9485568989320373
2018-11-22,0.9479846130866897
2018-11-23,0.9388024711284766
2018-11-26,0.940826308921859
2018-11-27,0.9408999970739245
2018-11-28,0.9423728378431045
2018-11-29,0.9410624941973206
2018-11-30,0.9420186581425816
2018-12-03,0.9435507838151214
2018-12-04,0.9427578341843397
2018-12-05,0.9419595155386957
2018-12-06,0.9391512760544359
2018-12-07,0.9395215101519039
2018-12-10,0.9392531588776125
2018-12-11,0.9392478670292519
2018-12-12,0.9387743147882087
2018-12-13,0.9385231065295426
2018-12-14,0.9382654041605631
2018-12-17,0.9383921141726962
2018-12-18,0.939045458762665
2018-12-19,0.93952077982506
2018-12-20,0.9393424834491154
2018-12-21,0.9402474263682816
2018-12-24,0.9406070186551515
2018-12-25,0.9413825808550431
2018-12-26,0.9413333154525678
2018-12-27,0.9409985508948915
2018-12-28,0.9421251948794991
2019-01-02,0.9421901678524531
2019-01-03,0.9434122828051923
2019-01-04,0.9430737876384714
2019-01-07,0.9427519280428038
2019-01-08,0.9422616387976823
2019-01-09,0.9418225686509377
2019-01-10,0.9420377748424544
2019-01-11,0.9412838479546474
2019-01-14,0.9411741923347811
2019-01-15,0.9411493485461926
2019-01-16,0.9416867998658823
2019-01-17,0.9411038801806441
2019-01-18,0.9422489476213061
2019-01-21,0.9457168168095775
2019-01-22,0.9399996874914893
2019-01-23,0.937291786237369
2019-01-24,0.9397863749462896
2019-01-25,0.9448133529293032
2019-01-28,0.9441932823122342
2019-01-29,0.9419650760571515
2019-01-30,0.940495116965627
2019-01-31,0.9480227490991926
2019-02-01,0.9538695001008585
2019-02-11,0.9583502170458489
2019-02-12,0.9625203798508939
2019-02-13,0.9727301544395298
2019-02-14,0.9721489480090295
2019-02-15,0.9644863960274136
2019-02-18,0.9823595221611463
2019-02-19,0.9789892501878344
2019-02-20,0.9798505505074734
2019-02-21,0.9808498051466655
2019-02-22,0.9921706868972037
2019-02-25,1.0194133189637544
2019-02-26,1.010930366535887
2019-02-27,1.007559226245751
2019-02-28,1.0074643313076048
2019-03-01,1.0160986955057543
2019-03-04,1.0260084297183274
2019-03-05,1.0353286441972167
2019-03-06,1.0433300166719541
2019-03-07,1.038478095508579
2019-03-08,1.0205747002977106
2019-03-11,1.0330799984731942
2019-03-12,1.0396879237295524
2019-03-13,1.0289823456112248
2019-03-14,1.0237705161755177
2019-03-15,1.0282933002883807
2019-03-18,1.0429540964980328
2019-03-19,1.0418653735140566
2019-03-20,1.0400770616990858
2019-03-21,1.0398152190469823
2019-03-22,1.0432364765972195
2019-03-25,1.0279049529182571
2019-03-26,1.0207907418915054
2019-03-27,1.0250298804778715
2019-03-28,1.0221041136226072
2019-03-29,1.0336882541184425
2019-04-01,1.0453137357105877
2019-04-02,1.0457116845057837
2019-04-03,1.0504355675349735
2019-04-04,1.051905564118722
2019-04-08,1.0501561955778635
2019-04-09,1.053555427501724
2019-04-10,1.0524217640388052
2019-04-11,1.0442681856197973
2019-04-12,1.0418545570883369
2019-04-15,1.0390318269392795
2019-04-16,1.0481398366820807
2019-04-17,1.04707696026271
2019-04-18,1.0447777657662534
2019-04-19,1.0496347515208346
2019-04-22,1.0418505178030444
2019-04-23,1.0406588588921983
2019-04-24,1.0421924828510263
2019-04-25,1.0395499093361624
2019-04-26,1.0403911105977102
2019-04-29,1.041766173853546
2019-04-30,1.0412969186915813
2019-05-06,1.0379653940062188
2019-05-07,1.0392425190766015
2019-05-08,1.0371504155885998
2019-05-09,1.036271419847319
2019-05-10,1.0364758780938972
2019-05-13,1.0360709915767166
2019-05-14,1.035908386937521
2019-05-15,1.0353391246324517
2019-05-16,1.0359381733986333
2019-05-17,1.0359601993306946
2019-05-20,1.0351713553215889
2019-05-21,1.0350399581142211
2019-05-22,1.0350192078501164
2019-05-23,1.0354251496289382
2019-05-24,1.0361167924579955
2019-05-27,1.0359141563362835
2019-05-28,1.0359147792122132
2019-05-29,1.0362828866499085
2019-05-30,1.035845919284205
2019-05-31,1.0372374582007122
2019-06-03,1.0387192191605576
2019-06-04,1.0399119342641738
2019-06-05,1.0407135930100002
2019-06-06,1.0406090024627097
2019-06-10,1.0401919663891384
2019-06-11,1.0393646306265947
2019-06-12,1.0408037765607119
2019-06-13,1.0409982366085533
2019-06-14,1.0428998124536704
2019-06-17,1.041464180671085
2019-06-18,1.0422472225552988
2019-06-19,1.0428717483938368
2019-06-20,1.051291662677289
2019-06-21,1.05422385056619
2019-06-24,1.0550993606449273
2019-06-25,1.049768888755278
2019-06-26,1.047302342137251
2019-06-27,1.0559705990496033
2019-06-28,1.0537180656192389
2019-07-01,1.0703820372617323
2019-07-02,1.0708443743640008
2019-07-03,1.0705103900367632
2019-07-04,1.067617071261606
2019-07-05,1.071254003522137
2019-07-08,1.0538723995415948
2019-07-09,1.0506508727966088
2019-07-10,1.0525541234300229
2019-07-11,1.056652831190789
2019-07-12,1.0573241968627507
2019-07-15,1.0613379453717477
2019-07-16,1.0627071584111332
2019-07-17,1.0612350568645013
2019-07-18,1.0570008799541117
2019-07-19,1.0651938539407184
2019-07-22,1.0580364340720347
2019-07-23,1.0611434307494927
2019-07-24,1.0677304641145426
2019-07-25,1.071731848783998
2019-07-26,1.0692681958935446
2019-07-29,1.0672113590454653
2019-07-30,1.0701061821223303
2019-07-31,1.0661481306708107
2019-08-01,1.061393384964223
2019-08-02,1.0556333661695532
2019-08-05,1.0563650786905423
2019-08-06,1.0550132989319299
2019-08-07,1.0570238222723332
2019-08-08,1.057841084842357
2019-08-09,1.0587204915443542
2019-08-12,1.0582132697694047
2019-08-13,1.061086126096678
2019-08-14,1.0579338851035038
2019-08-15,1.0592727866340428
2019-08-16,1.0593442138309588
2019-08-19,1.0584979941270305
2019-08-20,1.0568758183114264
2019-08-21,1.0567234138172104
2019-08-22,1.0574154093601331
2019-08-23,1.0571165559648525
2019-08-26,1.060197987503381
2019-08-27,1.0622703428721911
2019-08-28,1.0621588474703083
2019-08-29,1.0633638976070572
2019-08-30,1.0597104040485485
2019-09-02,1.0655241831170619
2019-09-03,1.0671065073132002
2019-09-04,1.07189395335823
2019-09-05,1.076049368049758
2019-09-06,1.0761917146281708
2019-09-09,1.084155243473739
2019-09-10,1.0785682326163009
2019-09-11,1.0789802297556927
2019-09-12,1.0835388325697053
2019-09-16,1.0798701615713273
2019-09-17,1.0698435224616936
2019-09-18,1.0721070507758292
2019-09-19,1.0746318614586947
2019-09-20,1.0759281444897315
2019-09-23,1.0704094971428584
2019-09-24,1.070454695056204
2019-09-25,1.0615346821124054
2019-09-26,1.0614698130516882
2019-09-27,1.0614698130516882
2019-09-30,1.0614108425065185
2019-10-08,1.061344809430631
2019-10-09,1.061340090434856
2019-10-10,1.0613448054054597
2019-10-11,1.0613495202084173
2019-10-14,1.0613353637244374
2019-10-15,1.0613483303545623
2019-10-16,1.061349509023856
2019-10-17,1.0613424307819617
2019-10-18,1.061391937093271
2019-10-21,1.0613471225671107
2019-10-22,1.0613376847437217
2019-10-23,1.0613400422708281
2019-10-24,1.0613365028983264
2019-10-25,1.0613353230760334
2019-10-28,1.0611501823640126
2019-10-29,1.0605790162893356
2019-10-30,1.0594181723919533
2019-10-31,1.059219291516959
2019-11-01,1.0604859166003127
2019-11-04,1.0646254145111214
2019-11-05,1.0694370805509215
2019-11-06,1.0675497327367527
2019-11-07,1.0681971905105028
2019-11-08,1.067564342335756
2019-11-11,1.06000379513242
2019-11-12,1.0627089395682583
2019-11-13,1.060937477946581
2019-11-14,1.0596865067792822
2019-11-15,1.058623044534573
2019-11-18,1.061616056184333
2019-11-19,1.0658060581028912
2019-11-20,1.06354890627551
2019-11-21,1.0609645020002438
2019-11-22,1.0586920651074871
2019-11-25,1.057941232660915
2019-11-26,1.059804590347845
2019-11-27,1.0607309162637992
2019-11-28,1.0632859060317477
2019-11-29,1.0619508486994091
2019-12-02,1.0633354833483741
2019-12-03,1.0615614870090762
2019-12-04,1.059414975010939
2019-12-05,1.0597686156916284
2019-12-06,1.0606280850935037
2019-12-09,1.0607224772370198
2019-12-10,1.0604392030063816
2019-12-11,1.0591155015061702
2019-12-12,1.0622508080991397
2019-12-13,1.0694953953282584
2019-12-16,1.0748936746543671
2019-12-17,1.08361267747698
2019-12-18,1.0814929103316298
2019-12-19,1.0812627053452277
2019-12-20,1.0810086953107034
2019-12-23,1.0758848997656272
2019-12-24,1.0835365151822383
2019-12-25,1.083030706110577
2019-12-26,1.0889951776267774
2019-12-27,1.0905979095564138
2019-12-30,1.0942449035420274
2019-12-31,1.093425878718694
2020-01-02,1.1055188345571874
2020-01-03,1.1089124411138944
2020-01-06,1.1090746710249626
2020-01-07,1.1174890396710366
2020-01-08,1.1097925408605216
2020-01-09,1.1195327125495214
2020-01-10,1.1258660616888816
2020-01-13,1.1335912268298343
2020-01-14,1.1292849353764267
2020-01-15,1.1290204129207346
2020-01-16,1.1293239635597876
2020-01-17,1.130157213265191
2020-01-20,1.1352785712772093
2020-01-21,1.1253421989733552
2020-01-22,1.1294794398939076
2020-01-23,1.1197017802297786
2020-02-03,1.1085135745181534
2020-02-04,1.1062221155643015
2020-02-05,1.1055487563534
2020-02-06,1.1083033859842772
2020-02-07,1.110696468737031
2020-02-10,1.1133730869247371
2020-02-11,1.116886884097468
2020-02-12,1.1234735730485146
2020-02-13,1.1301382122739834
2020-02-14,1.1246757026207603
2020-02-17,1.1289174037161698
2020-02-18,1.1260594463631737
2020-02-19,1.121718114510185
2020-02-20,1.129514814788824
2020-02-21,1.1325534825977097
2020-02-24,1.1301093005290979
2020-02-25,1.1293702786905366
2020-02-26,1.121321525302231
2020-02-27,1.1218391930685232
2020-02-28,1.106741372370027
2020-03-02,1.1122663701799085
2020-03-03,1.1151228299225195
2020-03-04,1.117975587255012
2020-03-05,1.1214893773028656
2020-03-06,1.1202453716926963
2020-03-09,1.104979992581628
2020-03-10,1.1119543007560304
2020-03-11,1.1066525390581352
2020-03-12,1.0983651058298625
2020-03-13,1.0911357826430481
2020-03-16,1.0845613049594478
2020-03-17,1.0842792134682115
2020-03-18,1.0842792134682115
2020-03-19,1.083899708943292
2020-03-20,1.0838394922927952
2020-03-23,1.0838178143230361
2020-03-24,1.0838154052744648
2020-03-25,1.0838021552717698
2020-03-26,1.083803358864889
2020-03-27,1.0838093767770056
2020-03-30,1.0837275016243735
2020-03-31,1.0836672945409498
2020-04-01,1.0839017706797935
2020-04-02,1.0837462578958184
2020-04-03,1.0836876208687531
2020-04-07,1.084223040188074
2020-04-08,1.0819204221237257
2020-04-09,1.082017050361924
2020-04-10,1.0817852155929093
2020-04-13,1.0807255089548446
2020-04-14,1.0845267503886695
2020-04-15,1.083180181675921
2020-04-16,1.085818776035703
2020-04-17,1.0895598008730425
2020-04-20,1.0912733984132208
2020-04-21,1.0847105400062174
2020-04-22,1.0927215367894538
2020-04-23,1.0939293402109105
2020-04-24,1.0883626643775894
2020-04-27,1.095656808886606
2020-04-28,1.1012577446303946
2020-04-29,1.1054160004130835
2020-04-30,1.1147267259265035
2020-05-06,1.113478141027042
2020-05-07,1.1101266361950937
2020-05-08,1.117701897343542
2020-05-11,1.1161034834471617
2020-05-12,1.1136563273724989
2020-05-13,1.1169045747688222
2020-05-14,1.1100319316914873
2020-05-15,1.1116679428029224
2020-05-18,1.1167860858912715
2020-05-19,1.126105664996024
2020-05-20,1.1249221854243874
2020-05-21,1.1182550930031454
2020-05-22,1.1120295061572818
2020-05-25,1.1147360487558695
2020-05-26,1.1213546082526997
2020-05-27,1.1176404655303689
2020-05-28,1.116701052275542
2020-05-29,1.116147278928534
2020-06-01,1.1216961916228607
2020-06-02,1.1201820267252132
2020-06-03,1.1215804034705001
2020-06-04,1.1245889359817947
2020-06-05,1.1263600930049256
2020-06-08,1.1268846565176973
2020-06-09,1.132945147344574
2020-06-10,1.1349847630859633
2020-06-11,1.1315887448346689
2020-06-12,1.1274030847099976
2020-06-15,1.1208766238054666
2020-06-16,1.1334583811644792
2020-06-17,1.1378678423134179
2020-06-18,1.1399503467546412
2020-06-19,1.1472104548448898
2020-06-22,1.1467817466485177
2020-06-23,1.1570711691957951
2020-06-24,1.1625893035318475
2020-06-29,1.1517257980033384
2020-06-30,1.160903473077297
2020-07-01,1.1654675248733108
2020-07-02,1.1756197212417077
2020-07-03,1.1879442532611282
2020-07-06,1.2161359952322934
2020-07-07,1.2200428274935522
2020-07-08,1.2302105226612754
2020-07-09,1.2467159958342653
2020-07-10,1.2418236606758377
2020-07-13,1.2610063137020546
2020-07-14,1.2476743697707344
2020-07-15,1.2373165789058291
2020-07-16,1.203213865351747
2020-07-17,1.2106185633621338
2020-07-20,1.219880564931122
2020-07-21,1.2366879174337173
2020-07-22,1.2432449686239704
2020-07-23,1.242827720008817
2020-07-24,1.210472456803522
2020-07-27,1.2139937065119
2020-07-28,1.218021209396575
2020-07-29,1.21907889255283
2020-07-30,1.2171005269870463
2020-07-31,1.221484931681635
2020-08-03,1.2214092849442264
2020-08-04,1.226564187665436
2020-08-05,1.231062933370775
2020-08-06,1.2314736798967112
2020-08-07,1.2297448240264524
2020-08-10,1.2259164811331522
2020-08-11,1.2221736542202117
2020-08-12,1.2133394028283588
2020-08-13,1.2162173514740124
2020-08-14,1.2160510595556848
2020-08-17,1.2161498271988407
2020-08-18,1.2157002437849933
2020-08-19,1.212587299255198
2020-08-20,1.2094122360519841
2020-08-21,1.214970852175251
2020-08-24,1.22238352100674
2020-08-25,1.2297091431797817
2020-08-26,1.2267129014670184
2020-08-27,1.2359236919487602
2020-08-28,1.2438062066179476
2020-08-31,1.2474813887902212
2020-09-01,1.2442930606134561
2020-09-02,1.2528101195312698
2020-09-03,1.2507821916748734
2020-09-04,1.229624959829814
2020-09-07,1.2105698647425267
2020-09-08,1.2153381121928262
2020-09-09,1.2106624253985994
2020-09-10,1.2106624253985994
2020-09-11,1.2106624253985994
2020-09-14,1.2106624253985994
2020-09-15,1.2106624253985994
2020-09-16,1.2106624253985994
2020-09-17,1.2106624253985994
2020-09-18,1.2106624253985994
2020-09-21,1.2106624253985994
2020-09-22,1.2105951663749661
2020-09-23,1.210554947066576
2020-09-24,1.2104388547897154
2020-09-25,1.2102939156467811
2020-09-28,1.210177622913818
2020-09-29,1.2100531746644936
2020-09-30,1.2099329001284977
2020-10-09,1.209609256414712
2020-10-12,1.2093203043726743
2020-10-13,1.2111469899629885
2020-10-14,1.2096658283972026
2020-10-15,1.2037737285392458
2020-10-16,1.2022736378700563
2020-10-19,1.1994354282007955
2020-10-20,1.2035310622832616
2020-10-21,1.2021438094340475
2020-10-22,1.1984749926597742
2020-10-23,1.1894920661059856
2020-10-26,1.188445777287453
2020-10-27,1.1913013514360742
2020-10-28,1.1959087904135817
2020-10-29,1.1963315907896754
2020-10-30,1.1925940251868823
2020-11-02,1.1930219922696699
2020-11-03,1.1942637347203233
2020-11-04,1.1939064923647196
2020-11-05,1.1997717156693477
2020-11-06,1.1952305707607755
2020-11-09,1.2077235398099584
2020-11-10,1.2010998921812739
2020-11-11,1.189226728468233
2020-11-12,1.1892469086102082
2020-11-13,1.1880679540694303
2020-11-16,1.189781468450995
2020-11-17,1.1872252067224591
2020-11-18,1.1869042325207622
2020-11-19,1.1886197058252475
2020-11-20,1.1888996849903195
2020-11-23,1.1914422279791899
2020-11-24,1.1912551734504206
2020-11-25,1.1877708933862914
2020-11-26,1.1877497898853584
2020-11-27,1.1919053519978926
2020-11-30,1.187734739235033
2020-12-01,1.1913361629371229
2020-12-02,1.1906465067050045
2020-12-03,1.1913434275285313
2020-12-04,1.1915910318989922
2020-12-07,1.188004459559776
2020-12-08,1.186636544537635
2020-12-09,1.1826631394036395
2020-12-10,1.1823728646565894
2020-12-11,1.1806798897263855
2020-12-14,1.1806798897263855
2020-12-15,1.1806142963991784
2020-12-16,1.1806142963991784
2020-12-17,1.1819417319093068
2020-12-18,1.181649114445963
2020-12-21,1.1859118896073728
2020-12-22,1.181476624577954
2020-12-23,1.1826182407422867
2020-12-24,1.1822156515429474
2020-12-25,1.1841890171236684
2020-12-28,1.1840332812530057
2020-12-29,1.182051833938399
2020-12-30,1.1858506692803228
2020-12-31,1.1926708824503338
2021-01-04,1.199914470588831
2021-01-05,1.2061116541863601
2021-01-06,1.2085497724798808
2021-01-07,1.2109071971546674
2021-01-08,1.210153015640542
2021-01-11,1.2026780780680866
2021-01-12,1.2134773849568004
2021-01-13,1.210005229054063
2021-01-14,1.210325095698911
2021-01-15,1.2125518813860223
2021-01-18,1.2221385141377423
2021-01-19,1.2189952209933688
2021-01-20,1.2294798985486672
2021-01-21,1.2360412291451799
2021-01-22,1.239379589585468
2021-01-25,1.2524683197476336
2021-01-26,1.2351820625535672
2021-01-27,1.2381012021658642
2021-01-28,1.2120277895205689
2021-01-29,1.2076603082269604
2021-02-01,1.210924158721784
2021-02-02,1.2209406514231138
2021-02-03,1.2219303004569704
2021-02-04,1.221953856191733
2021-02-05,1.2234883843921287
2021-02-08,1.2247145560620638
2021-02-09,1.2299283673567578
2021-02-10,1.2427358868505423
2021-02-18,1.2366484583247201
2021-02-19,1.2336731456011958
2021-02-22,1.2174971190914317
2021-02-23,1.2132210174639009
2021-02-24,1.1973287893524385
2021-02-25,1.1985196679203514
2021-02-26,1.1911503001704857
2021-03-01,1.193665121943551
2021-03-02,1.1924984986740288
2021-03-03,1.194304927813878
2021-03-04,1.1918352539198283
2021-03-05,1.1922233993502862
2021-03-08,1.1887487259967855
2021-03-09,1.1885223011204187
2021-03-10,1.1886063814207857
2021-03-11,1.1885110596429096
2021-03-12,1.1885222711954817
2021-03-15,1.1884515809374383
2021-03-16,1.1882016127973993
2021-03-17,1.1882016127973993
2021-03-18,1.1882016127973993
2021-03-19,1.1882016127973993
2021-03-22,1.1882016127973993
2021-03-23,1.1882016127973993
2021-03-24,1.1882016127973993
2021-03-25,1.1882016127973993
2021-03-26,1.1882016127973993
2021-03-29,1.1882016127973993
2021-03-30,1.1882016127973993
2021-03-31,1.1882016127973993
2021-04-01,1.1881356015966884
2021-04-02,1.1894929371728433
2021-04-06,1.1906346291498533
2021-04-07,1.1912665286953976
2021-04-08,1.193092995698849
2021-04-09,1.1936619629186345
2021-04-12,1.1917106943221765
2021-04-13,1.1903641344387943
2021-04-14,1.1935136376333915
2021-04-15,1.1921358963321749
2021-04-16,1.1944809058554549
2021-04-19,1.1954608956772723
2021-04-20,1.1916971715837867
2021-04-21,1.1906484937309727
2021-04-22,1.1933809728014737
2021-04-23,1.19499912479424
2021-04-26,1.1922524972312358
2021-04-27,1.1932139015227508
2021-04-28,1.196362047915804
2021-04-29,1.196938971931895
2021-04-30,1.196947449889956
2021-05-06,1.1907517787559836
2021-05-07,1.186169855194416
2021-05-10,1.187487215183849
2021-05-11,1.1869911907810917
2021-05-12,1.1907570075670915
2021-05-13,1.187547440052986
2021-05-14,1.1947005012594407
2021-05-17,1.200046086498432
2021-05-18,1.2004846131007554
2021-05-19,1.2015203229179974
2021-05-20,1.2029075679950445
2021-05-21,1.1997786759382756
2021-05-24,1.2024831435921959
2021-05-25,1.2114788532962328
2021-05-26,1.212170265760962
2021-05-27,1.2139645235618182
2021-05-28,1.2125926991404632
2021-05-31,1.2176986959974492
2021-06-01,1.2189180333797158
2021-06-02,1.2122433405884003
2021-06-03,1.209341685277875
2021-06-04,1.21279355926915
2021-06-07,1.211982909707304
2021-06-08,1.2094951398041205
2021-06-09,1.2090796936125086
2021-06-10,1.2138785029558639
2021-06-11,1.2155044955805878
2021-06-15,1.2140640168558832
2021-06-16,1.2075247621011949
2021-06-17,1.2070875338586755
2021-06-18,1.2097951639929028
2021-06-21,1.208483229999248
2021-06-22,1.2093509594691865
2021-06-23,1.2113641127592143
2021-06-24,1.2089103362975049
2021-06-25,1.2133363335257383
2021-06-28,1.2163941559155218
2021-06-29,1.2146714841019968
2021-06-30,1.2192356340459818
2021-07-01,1.2154185414199374
2021-07-02,1.2080736490122477
2021-07-05,1.211363419136459
2021-07-06,1.2091294775144978
2021-07-07,1.2161161281553694
2021-07-08,1.2165552284920176
2021-07-09,1.2169228305425164
2021-07-12,1.224883987718101
2021-07-13,1.2260796067341058
2021-07-14,1.2240620752880034
2021-07-15,1.2261342482405737
2021-07-16,1.220726302842773
2021-07-19,1.2187473151945447
2021-07-20,1.2203612930607062
2021-07-21,1.2257894730055265
2021-07-22,1.2246719353059443
2021-07-23,1.2215007808657832
2021-07-26,1.21692087884789
2021-07-27,1.2168261719185962
2021-07-28,1.2153304459576735
2021-07-29,1.2156529673677525
2021-07-30,1.2135548910392342
2021-08-02,1.215860597193857
2021-08-03,1.2155233492836155
2021-08-04,1.216252193917399
2021-08-05,1.2160611027751975
2021-08-06,1.217114172513964
2021-08-09,1.2161120244334938
2021-08-10,1.2163888910636897
2021-08-11,1.216798466115755
2021-08-12,1.2169551741012525
2021-08-13,1.2175353325622749
2021-08-16,1.2170676026613005
2021-08-17,1.2144395603960725
2021-08-18,1.2141748775612111
2021-08-19,1.2120005383691357
2021-08-20,1.2113712688248048
2021-08-23,1.2133663252902012
2021-08-24,1.2168626682001344
2021-08-25,1.2178837948994992
2021-08-26,1.217005828469429
2021-08-27,1.218245868981607
2021-08-30,1.2202343741633412
2021-08-31,1.2226049086974236
2021-09-01,1.2207209777248542
2021-09-02,1.2230859365444957
2021-09-03,1.2219521766478039
2021-09-06,1.2243649499732463
2021-09-07,1.2272091112174865
2021-09-08,1.2264098022543162
2021-09-09,1.2262940217958909
2021-09-10,1.2257722927703885
2021-09-13,1.2246236388327367
2021-09-14,1.2210993300432669
2021-09-15,1.2201268080127388
2021-09-16,1.2157862552626626
2021-09-17,1.214546574041167
2021-09-22,1.2158548825253137
2021-09-23,1.2166343052278434
2021-09-24,1.2145193334275222
2021-09-27,1.2105198845751735
2021-09-28,1.2105198845751735
2021-09-29,1.2104526334704748
2021-09-30,1.2103824823843081
2021-10-08,1.2096755880712862
2021-10-11,1.2077056203350118
2021-10-12,1.2050946015075057
2021-10-13,1.204979316296072
2021-10-14,1.2049806544464945
2021-10-15,1.2049204017694586
2021-10-18,1.204739661411382
2021-10-19,1.2055102687943091
2021-10-20,1.2051430871286193
2021-10-21,1.2026874499759208
2021-10-22,1.2052380017099438
2021-10-25,1.2079000151147852
2021-10-26,1.203166730563651
2021-10-27,1.1947147156567888
2021-10-28,1.1928821460638463
2021-10-29,1.1958653852026258
2021-11-01,1.19669599192471
2021-11-02,1.1955250595853224
2021-11-03,1.1959231812694062
2021-11-04,1.19925964836251
2021-11-05,1.2004042964600221
2021-11-08,1.2010007884880571
2021-11-09,1.2024279533859226
2021-11-10,1.2010133415965778
2021-11-11,1.2027902907369483
2021-11-12,1.20346699112217
2021-11-15,1.2027855024057639
2021-11-16,1.2011865599955487
2021-11-17,1.2040161820332325
2021-11-18,1.203270849807707
2021-11-19,1.2081612600573501
2021-11-22,1.2117560639657983
2021-11-23,1.2069605910328167
2021-11-24,1.206410140037705
2021-11-25,1.206715072310473
2021-11-26,1.203814055060258
2021-11-29,1.2040592354953217
2021-11-30,1.2042675645585912
2021-12-01,1.2042336995249476
2021-12-02,1.1998445274197354
2021-12-03,1.201578748993948
2021-12-06,1.1976561287796685
2021-12-07,1.1965901311413192
2021-12-08,1.19864534848512
2021-12-09,1.2011353874077264
2021-12-10,1.200760316605637
2021-12-13,1.2014175574169714
2021-12-14,1.200426439680254
2021-12-15,1.1989572072331658
2021-12-16,1.2009825842560198
2021-12-17,1.198034864966961
2021-12-20,1.1935488158567977
2021-12-21,1.1945686499729824
2021-12-22,1.1952207050899784
2021-12-23,1.1960331643825788
2021-12-24,1.1951399828353981
2021-12-27,1.1947755286827437
2021-12-28,1.195311564115206
2021-12-29,1.1942479768931038
2021-12-30,1.1941672188394508
2021-12-31,1.196177517816355
2022-01-04,1.1963364367478664
2022-01-05,1.1912290525156741
2022-01-06,1.1866932657842244
2022-01-07,1.1858502423329305
2022-01-10,1.1859936776839421
2022-01-11,1.1861829322270747
2022-01-12,1.186101462579986
2022-01-13,1.1861645391090332
2022-01-14,1.1861350379559243
2022-01-17,1.1845180517222522
2022-01-18,1.1842696289286514
2022-01-19,1.1838480737739032
2022-01-20,1.1899561554454516
2022-01-21,1.1903205369195615
2022-01-24,1.1895111359125232
2022-01-25,1.1871994615195332
2022-01-26,1.186791150522504
2022-01-27,1.180568571541332
2022-01-28,1.1807777937172235
2022-02-07,1.1805351356908595
2022-02-08,1.1806931439425457
2022-02-09,1.1807590906774819
2022-02-10,1.1808822960960532
2022-02-11,1.1802621754573623
2022-02-14,1.180178241215523
2022-02-15,1.1814845029082266
2022-02-16,1.1797308471419008
2022-02-17,1.1809373842154178
2022-02-18,1.1821420107026073
2022-02-21,1.181852192091052
2022-02-22,1.183495547319388
2022-02-23,1.1824918162031008
2022-02-24,1.185311993201354
2022-02-25,1.183738944295135
2022-02-28,1.1830476648638122
2022-03-01,1.1830129386519395
2022-03-02,1.1847828184719316
2022-03-03,1.1844395788051951
2022-03-04,1.1849208024863902
2022-03-07,1.1878330537616306
2022-03-08,1.1908236654794906
2022-03-09,1.1923389158969968
2022-03-10,1.1880960311212339
2022-03-11,1.1882974333221965
2022-03-14,1.1875603893018427
2022-03-15,1.1841971261953936
2022-03-16,1.1828271926296658
2022-03-17,1.1828528669294067
2022-03-18,1.1830357645510543
2022-03-21,1.1829823043118406
2022-03-22,1.1827614923313652
2022-03-23,1.1860469211330096
2022-03-24,1.1849158802806494
2022-03-25,1.1873931314853765
2022-03-28,1.1867131388840422
2022-03-29,1.1894023419900637
2022-03-30,1.190990826044536
2022-03-31,1.18994603687696
2022-04-01,1.188704166713612
2022-04-06,1.1879952555024653
2022-04-07,1.18542693292634
2022-04-08,1.1864595003383325
2022-04-11,1.1827870026685896
2022-04-12,1.1828292249801247
2022-04-13,1.1828108347023403
2022-04-14,1.1831936261416405
2022-04-15,1.1835206935491063
2022-04-18,1.184106958114889
2022-04-19,1.1831358112678587
2022-04-20,1.1815019779993663
2022-04-21,1.1831041325520393
2022-04-22,1.1834767873492364
2022-04-25,1.18250014486201
2022-04-26,1.1813612024269666
2022-04-27,1.1814286595068295
2022-04-28,1.1813611732804452
2022-04-29,1.1831150584256418
2022-05-05,1.1826813436153047
2022-05-06,1.1824471180677552
2022-05-09,1.1830163478049343
2022-05-10,1.1819824507348107
2022-05-11,1.1812072423040918
2022-05-12,1.1825610356353435
2022-05-13,1.1812726865215728
2022-05-16,1.1812567504802172
2022-05-17,1.1813492995402328
2022-05-18,1.1814413552446992
2022-05-19,1.1792072008970955
2022-05-20,1.1805693056440132
2022-05-23,1.178665110432621
2022-05-24,1.1719020339562645
2022-05-25,1.1755859832742237
2022-05-26,1.17707512610491
2022-05-27,1.1808342291676521
2022-05-30,1.1830706608090582
2022-05-31,1.1864753034585542
2022-06-01,1.18615012359023
2022-06-02,1.1874161255359619
2022-06-06,1.202212154279812
2022-06-07,1.2065026175527334
2022-06-08,1.2198880228202613
2022-06-09,1.2115938104573223
2022-06-10,1.2224282229183714
2022-06-13,1.2106434334772191
2022-06-14,1.2103946675965298
2022-06-15,1.2145745268524148
2022-06-16,1.2092499088714663
2022-06-17,1.2197086268891562
2022-06-20,1.223339757524392
2022-06-21,1.225824594733138
2022-06-22,1.216400554687801
2022-06-23,1.2313917225727768
2022-06-24,1.2433132284275918
2022-06-27,1.249696812621495
2022-06-28,1.2557567347950427
2022-06-29,1.2424245727753378
2022-06-30,1.246034928926404
2022-07-01,1.2418951177116722
2022-07-04,1.2504122033407459
2022-07-05,1.2500582776555034
2022-07-06,1.2398492396814302
2022-07-07,1.2446417910561958
2022-07-08,1.2437599132274624
2022-07-11,1.2271441296584809
2022-07-12,1.223633275744915
2022-07-13,1.223633275744915
2022-07-14,1.2236278351209553
2022-07-15,1.2235802407341245
2022-07-18,1.2233941839992633
2022-07-19,1.2214022086198943
2022-07-20,1.2258043047018017
2022-07-21,1.2266798021839533
2022-07-22,1.227731490630947
2022-07-25,1.2257081250574833
2022-07-26,1.2250508531965043
2022-07-27,1.2250607160069846
2022-07-28,1.227435905815783
2022-07-29,1.231507105710197
2022-08-01,1.2314131691369092
2022-08-02,1.2316140473966766
2022-08-03,1.2315657635158281
2022-08-04,1.2355918819862906
2022-08-05,1.2359167469112118
2022-08-08,1.234732585493523
2022-08-09,1.2342029147767863
2022-08-10,1.2325798784198478
2022-08-11,1.2366159648277593
2022-08-12,1.235660683378228
2022-08-15,1.2390579733182205
2022-08-16,1.2411589130510587
2022-08-17,1.2410201692161769
2022-08-18,1.237903361977761
2022-08-19,1.2343307151922074
2022-08-22,1.2358165437919886
2022-08-23,1.2331004244534596
2022-08-24,1.224360175024345
2022-08-25,1.2254950527250479
2022-08-26,1.226042519915245
2022-08-29,1.2219959362657506
2022-08-30,1.2198978292083968
2022-08-31,1.2216959390748312
2022-09-01,1.2160616861421032
2022-09-02,1.2152363233185337
2022-09-05,1.212770758229298
2022-09-06,1.2127136044682645
2022-09-07,1.2108347173678273
2022-09-08,1.2077296443294718
2022-09-09,1.2076109348819304
2022-09-13,1.207497483532501
2022-09-14,1.2073094735384957
2022-09-15,1.2073094735384957
2022-09-16,1.2073094735384957
2022-09-19,1.2073094735384957
2022-09-20,1.2073094735384957
2022-09-21,1.2073094735384957
2022-09-22,1.2073094735384957
2022-09-23,1.2073094735384957
2022-09-26,1.2073094735384957
2022-09-27,1.2073094735384957
2022-09-28,1.2073094735384957
2022-09-29,1.2073094735384957
2022-09-30,1.2072424007899658
2022-10-10,1.2070921932317344
2022-10-11,1.2067889872763724
2022-10-12,1.2071468538892638
2022-10-13,1.2073280614531627
2022-10-14,1.2071860713903058
2022-10-17,1.2064402715866525
2022-10-18,1.2067935994195613
2022-10-19,1.2064800510615123
2022-10-20,1.2057771105418384
2022-10-21,1.2057811278518509
2022-10-24,1.2057087789776517
2022-10-25,1.2058724598810313
2022-10-26,1.205767381190161
2022-10-27,1.2055220265961417
2022-10-28,1.2055602829367724
2022-10-31,1.2051364653274776
2022-11-01,1.2054174516998708
2022-11-02,1.2034913832165024
2022-11-03,1.1992044494792045
2022-11-04,1.1990681849182585
2022-11-07,1.199617352938983
2022-11-08,1.1992970323856549
2022-11-09,1.2008931246845689
2022-11-10,1.1957533269201153
2022-11-11,1.1994747941464539
2022-11-14,1.1967339685117724
2022-11-15,1.2098235219564495
2022-11-16,1.2074385028851227
2022-11-17,1.2059563108740292
2022-11-18,1.2044720292139495
2022-11-21,1.1983955709394007
2022-11-22,1.1867922888255689
2022-11-23,1.1927363413870373
2022-11-24,1.1931454954974017
2022-11-25,1.1931311544424976
2022-11-28,1.185580932205823
2022-11-29,1.1968496239211337
2022-11-30,1.1990325792920011
2022-12-01,1.2054762903873677
2022-12-02,1.2031280557700401
2022-12-05,1.2144446821952162
2022-12-06,1.208818818130468
2022-12-07,1.2040035941307252
2022-12-08,1.2085124140040984
2022-12-09,1.215854201415548
2022-12-12,1.2084002075812927
2022-12-13,1.2093605432311971
2022-12-14,1.211222805056938
2022-12-15,1.2053157119329505
2022-12-16,1.2073503692724485
2022-12-19,1.2044534982106603
2022-12-20,1.1980308138852545
2022-12-21,1.1979642566178164
2022-12-22,1.1979642566178164
2022-12-23,1.1968603908440416
2022-12-26,1.197028736071968
2022-12-27,1.1973650479793232
2022-12-28,1.1973326746680364
2022-12-29,1.1961441342340466
2022-12-30,1.1976457432498833
2023-01-03,1.1982097558829927
2023-01-04,1.2028925193018918
2023-01-05,1.2075290226557744
2023-01-06,1.2051829652077295
2023-01-09,1.2122559047170398
2023-01-10,1.212868843744897
2023-01-11,1.2135871313646853
2023-01-12,1.20922067100976
2023-01-13,1.2181700118976515
2023-01-16,1.220705948485008
2023-01-17,1.2227241558616502
2023-01-18,1.2239828690301662
2023-01-19,1.2258280559474712
2023-01-20,1.2364101481212186
2023-01-30,1.2428784208825971
2023-01-31,1.2295978912479357
2023-02-01,1.2436431463612627
2023-02-02,1.2470160610209116
2023-02-03,1.2378487929167012
2023-02-06,1.2236314810693456
2023-02-07,1.2233888306269165
2023-02-08,1.22484881876058
2023-02-09,1.2254690906659982
2023-02-10,1.2229175475186902
2023-02-13,1.2236352060294247
2023-02-14,1.2259227616626363
2023-02-15,1.2259703513686182
2023-02-16,1.2266809838752397
2023-02-17,1.2215568040429086
2023-02-20,1.2219251781338039
2023-02-21,1.2214997576111069
2023-02-22,1.2189254438533395
2023-02-23,1.2189254438533395
2023-02-24,1.2189254438533395
2023-02-27,1.2189254438533395
2023-02-28,1.2189254438533395
2023-03-01,1.2189254438533395
2023-03-02,1.2189254438533395
2023-03-03,1.2189254438533395
2023-03-06,1.2188577257731252
2023-03-07,1.2189562709169586
2023-03-08,1.2176014214495772
2023-03-09,1.2176219550620953
2023-03-10,1.2185461312010557
2023-03-13,1.219443930361349
2023-03-14,1.2212443787949507
2023-03-15,1.2211110917528651
2023-03-16,1.222325817423747
2023-03-17,1.2231184014580414
2023-03-20,1.2256870031204143
2023-03-21,1.2257332175385145
2023-03-22,1.2257288043783536
2023-03-23,1.2249955209756214
2023-03-24,1.2267232727834387
2023-03-27,1.226947777450648
2023-03-28,1.225389061679928
2023-03-29,1.2258345440598943
2023-03-30,1.228405635734971
2023-03-31,1.2326036074022848
2023-04-03,1.2312918946659444
2023-04-04,1.2286258789995128
2023-04-06,1.2256345932469568
2023-04-07,1.232388026781966
2023-04-10,1.2279469864133468
2023-04-11,1.2268047593504305
2023-04-12,1.223591879069654
2023-04-13,1.2170084041159432
2023-04-14,1.2212097836361977
2023-04-17,1.22380147283562
2023-04-18,1.2215908082974845
2023-04-19,1.2175943707144075
2023-04-20,1.2158560614728786
2023-04-21,1.2097466194656528
2023-04-24,1.209058959916236
2023-04-25,1.209070979038031
2023-04-26,1.2086933812380483
2023-04-27,1.2090371957442514
2023-04-28,1.2117014169500884
2023-05-04,1.2110105112210814
2023-05-05,1.2116035100006453
2023-05-08,1.2121282906552886
2023-05-09,1.212458158819508
2023-05-10,1.2132772614116434
2023-05-11,1.2150975742979766
2023-05-12,1.214710129163644
2023-05-15,1.2150124476519713
2023-05-16,1.2149632342925796
2023-05-17,1.2153065998537593
2023-05-18,1.2170794583447715
2023-05-19,1.220253930850888
2023-05-22,1.2195918198457274
2023-05-23,1.22103743056503
2023-05-24,1.218898622953696
2023-05-25,1.22094560034434
2023-05-26,1.2213501641712619
2023-05-29,1.2262818505184205
2023-05-30,1.226708439542187
2023-05-31,1.2262543297111954
2023-06-01,1.2262378201351172
2023-06-02,1.2277658708625854
2023-06-05,1.228560206397631
2023-06-06,1.2287429877165676
2023-06-07,1.229267379488934
2023-06-08,1.2263452796723049
2023-06-09,1.2286755906028222
2023-06-12,1.2303188643860878
2023-06-13,1.2336250709041354
2023-06-14,1.230684958175306
2023-06-15,1.2353880826309502
2023-06-16,1.2421188385981756
2023-06-19,1.2366783813449382
2023-06-20,1.2343151544422712
2023-06-21,1.2202736790344726
2023-06-26,1.2095346333288
2023-06-27,1.2087772523682812
2023-06-28,1.2095455058530322
2023-06-29,1.210383328084328
2023-06-30,1.213953334915413
2023-07-03,1.2186227877628162
2023-07-04,1.2185054689258539
2023-07-05,1.2164331863186577
2023-07-06,1.2143027721499622
2023-07-07,1.2118444479970334
2023-07-10,1.2114358753129604
2023-07-11,1.2132837823959066
2023-07-12,1.2126045240344971
2023-07-13,1.2180307868346352
2023-07-14,1.2182671523198985
2023-07-17,1.218607935193755
2023-07-18,1.2201588161101964
2023-07-19,1.2241749313585788
2023-07-20,1.2211603521511407
2023-07-21,1.2186115859611668
2023-07-24,1.2180898613605857
2023-07-25,1.2164555256744969
2023-07-26,1.217092429581409
2023-07-27,1.2197426431231362
2023-07-28,1.226320330110874
2023-07-31,1.2344376757723394
2023-08-01,1.2324130616899227
2023-08-02,1.2236526069667486
2023-08-03,1.2237958362033325
2023-08-04,1.2264919130594665
2023-08-07,1.2236079321919777
2023-08-08,1.2176679548012763
2023-08-09,1.2162122653716099
2023-08-10,1.2177152703968492
2023-08-11,1.2065903061540126
2023-08-14,1.2065795773201997
2023-08-15,1.206515225137328
2023-08-16,1.2066001305012584
2023-08-17,1.2065388000119337
2023-08-18,1.2066288927402058
2023-08-21,1.2067404719825794
2023-08-22,1.2065854375075187
2023-08-23,1.2065048247517476
2023-08-24,1.2068335947685689
2023-08-25,1.206286944714194
2023-08-28,1.2061747055646552
2023-08-29,1.2062995650822241
2023-08-30,1.2067499474339822
2023-08-31,1.2071918188639572
2023-09-01,1.2068577538079734
2023-09-04,1.2076741284510366
2023-09-05,1.2076201181765276
2023-09-06,1.2077564545371908
2023-09-07,1.2066828506489375
2023-09-08,1.20845824710982
2023-09-11,1.2078949561064263
2023-09-12,1.2087484708508942
2023-09-13,1.2074751474061312
2023-09-14,1.2084327453884685
2023-09-15,1.2071456108173053
2023-09-18,1.206437500330798
2023-09-19,1.2074741090797998
2023-09-20,1.2085036435024472
2023-09-21,1.208094255094033
2023-09-22,1.207537146961181
2023-09-25,1.208125224977767
2023-09-26,1.2080372774984252
2023-09-27,1.2060066075391194
2023-09-28,1.2059396071720339
2023-10-09,1.2058819949831
2023-10-10,1.2058819949831
2023-10-11,1.2058699320099182
2023-10-12,1.2058672511347817
2023-10-13,1.2058819831093053
2023-10-16,1.2058833222487648
2023-10-17,1.2058779609750705
2023-10-18,1.2058846568509047
2023-10-19,1.2058967088917945
2023-10-20,1.2058243538329996
2023-10-23,1.2050900036719396
2023-10-24,1.2051657645502907
2023-10-25,1.20463865258921
2023-10-26,1.2055299281425638
2023-10-27,1.205792454123777
2023-10-30,1.2060166537567851
2023-10-31,1.2063782296940433
2023-11-01,1.2059130248173031
2023-11-02,1.2063065652376257
2023-11-03,1.206209940872865
2023-11-06,1.205435231695994
2023-11-07,1.2039990291007003
2023-11-08,1.203690814626197
2023-11-09,1.2034265621099682
2023-11-10,1.202615626733782
2023-11-13,1.2029185402600575
2023-11-14,1.2029674931271217
2023-11-15,1.2069103028762789
2023-11-16,1.2023691669677756
2023-11-17,1.2037136060098483
2023-11-20,1.20315099598043
2023-11-21,1.2034233038513944
2023-11-22,1.1981028607423692
2023-11-23,1.198797104614307
2023-11-24,1.1988456782043342
2023-11-27,1.1981399113160105
2023-11-28,1.1984773999256695
2023-11-29,1.1984041620297614
2023-11-30,1.1982887242445324
2023-12-01,1.1977110902685533
2023-12-04,1.1978762927064828
2023-12-05,1.1944990406866818
2023-12-06,1.1944410576709172
2023-12-07,1.194614919659016
2023-12-08,1.1948175226376943
2023-12-11,1.1938339106030584
2023-12-12,1.1931775392901405
2023-12-13,1.1945736570951124
2023-12-14,1.1958935209584272
2023-12-15,1.1948000043883984
2023-12-18,1.19591165643602
2023-12-19,1.1966716639758679
2023-12-20,1.1973469487353372
2023-12-21,1.1956462895967672
2023-12-22,1.196493199547752
2023-12-25,1.1967149296112136
2023-12-26,1.1976346855374829
2023-12-27,1.198577915990118
2023-12-28,1.1984298981378378
2023-12-29,1.1978227900422942
2024-01-02,1.1978942619317405
2024-01-03,1.1956168122149378
2024-01-04,1.1953806980023038
2024-01-05,1.1958261617468573
2024-01-08,1.1953828975239913
2024-01-09,1.195374550199307
2024-01-10,1.194779264873614
2024-01-11,1.1947347952662164
2024-01-12,1.1942788287882118
2024-01-15,1.1950244113353194
2024-01-16,1.1937438764421575
2024-01-17,1.1924302983983965
2024-01-18,1.192235262221032
2024-01-19,1.1951989854575535
2024-01-22,1.1993088697044862
2024-01-23,1.1982818552207122
2024-01-24,1.1989743563002466
2024-01-25,1.1983339531734911
2024-01-26,1.1973813616773479
2024-01-29,1.1985885636749096
2024-01-30,1.2010368275127938
2024-01-31,1.198177148062977
2024-02-01,1.1967878262385816
2024-02-02,1.199999959628832
2024-02-05,1.1997588248587925
2024-02-06,1.1994722831146372
2024-02-07,1.1983613589395157
2024-02-08,1.2030671866577118
2024-02-19,1.2026929966011741
2024-02-20,1.2027002606556643
2024-02-21,1.2058912861860591
2024-02-22,1.2099313931494944
2024-02-23,1.2142158674278376
2024-02-26,1.207645825310929
2024-02-27,1.2162468786361869
2024-02-28,1.2046900830810767
2024-02-29,1.2168341405619596
2024-03-01,1.2220940146948889
2024-03-04,1.2234483447256856
2024-03-05,1.218299737938923
2024-03-06,1.2198218337779858
2024-03-07,1.2139201828823645
2024-03-08,1.2211024869925113
2024-03-11,1.2316445203936703
2024-03-12,1.2354914208881225
2024-03-13,1.2347977128486027
2024-03-14,1.2304403212372887
2024-03-15,1.2292905875020228
2024-03-18,1.237542545658641
2024-03-19,1.229364519660404
2024-03-20,1.2316675939016835
2024-03-21,1.2380252697583527
2024-03-22,1.2250214192649744
2024-03-25,1.2185843857933238
2024-03-26,1.2232478018248139
2024-03-27,1.219777998582574
2024-03-28,1.2226041595388342
2024-03-29,1.2251763303930234
2024-04-01,1.2285028621986638
2024-04-02,1.2279755653744913
2024-04-03,1.2274284941495675
2024-04-08,1.2304387168028472
2024-04-09,1.231385836322414
2024-04-10,1.2357621145726998
2024-04-11,1.2347706745437657
2024-04-12,1.2335752349244637
2024-04-15,1.2285246198473188
2024-04-16,1.2232225479032068
2024-04-17,1.2234082844956444
2024-04-18,1.223119417380785
2024-04-19,1.2238590061449233
2024-04-22,1.2212817963241822
2024-04-23,1.218003802122078
2024-04-24,1.2223333740719913
2024-04-25,1.2220085145088277
2024-04-26,1.2298598886458523
2024-04-29,1.2285866607994413
2024-04-30,1.2239668030720663
2024-05-06,1.2466030868931894
2024-05-07,1.2431199342430868
2024-05-08,1.2357268960186616
2024-05-09,1.2466944504720703
2024-05-10,1.248833104463345
2024-05-13,1.2505210695803683
2024-05-14,1.2520728439255213
2024-05-15,1.2478794208777368
2024-05-16,1.2511427008181317
2024-05-17,1.258688008789701
2024-05-20,1.260762412033451
2024-05-21,1.2513868964840282
2024-05-22,1.2541056265027795
2024-05-23,1.243715315524921
2024-05-24,1.2312803509314287
2024-05-27,1.2350482459434733
2024-05-28,1.2358291929399445
2024-05-29,1.23085907282404
2024-05-30,1.2294202245453165
2024-05-31,1.228725252562177
2024-06-03,1.2288721575169115
2024-06-04,1.2289052312114028
2024-06-05,1.2289455310955593
2024-06-06,1.2288503729185647
2024-06-07,1.2289989814621394
2024-06-11,1.2290968919141518
2024-06-12,1.230350305612765
2024-06-13,1.2330809837005186
2024-06-14,1.2330072888965267
2024-06-17,1.233638945664099
2024-06-18,1.2354837413915742
2024-06-19,1.235699731901561
2024-06-20,1.2367578082021977
2024-06-21,1.2346314036960377
2024-06-24,1.2341494748620057
2024-06-25,1.232767779588336
2024-06-26,1.2354579901264837
2024-06-27,1.2355096110006465
2024-06-28,1.237495030781494
2024-07-01,1.2370733744711906
2024-07-02,1.2372941411565432
2024-07-03,1.2400308888523546
2024-07-04,1.2407808918323042
2024-07-05,1.2424046674910307
2024-07-08,1.2442023182986994
2024-07-09,1.2458022459826608
2024-07-10,1.2440562764685974
2024-07-11,1.245185782113843
2024-07-12,1.2402918671114302
2024-07-15,1.2398528359958452
2024-07-16,1.2376286887301542
2024-07-17,1.2377354477510065
2024-07-18,1.2356313971230395
2024-07-19,1.2257663550116085
2024-07-22,1.2289704447962437
2024-07-23,1.2216800841523183
2024-07-24,1.2206584020664049
2024-07-25,1.2162896440883497
2024-07-26,1.2163493894424788
2024-07-29,1.216326087330197
2024-07-30,1.2163463351348873
2024-07-31,1.216444523907965
2024-08-01,1.2166731459327416
2024-08-02,1.2168761725541646
2024-08-05,1.2169276180679722
2024-08-06,1.2167267691271197
2024-08-07,1.2169196270170597
2024-08-08,1.2167985056471253
2024-08-09,1.2165440282055535
2024-08-12,1.2158398100808294
2024-08-13,1.2158411603460244
2024-08-14,1.2158384574381202
2024-08-15,1.215764159471197
2024-08-16,1.215764159471197
2024-08-19,1.2156966170178929
2024-08-20,1.2156966170178929
2024-08-21,1.2162843945467081
2024-08-22,1.2158749703701888
2024-08-23,1.2141237671617948
2024-08-26,1.2151669896370754
2024-08-27,1.2137809523357665
2024-08-28,1.2127577193669625
2024-08-29,1.209465467274749
2024-08-30,1.2112857008001716
2024-09-02,1.2078594035309624
2024-09-03,1.207918259816904
2024-09-04,1.2062027162942976
2024-09-05,1.205966844053215
2024-09-06,1.205944719841842
2024-09-09,1.2060014003839519
2024-09-10,1.20611360076227
2024-09-11,1.2062540070152632
2024-09-12,1.205769911132926
2024-09-13,1.2079293911035278
2024-09-18,1.2078871871577561
2024-09-19,1.2073475088222854
2024-09-20,1.2095698509362338
2024-09-23,1.211474547042339
2024-09-24,1.2157331427854872
2024-09-25,1.2228816575407349
2024-09-26,1.2578122239158043
2024-09-27,1.3043386668241812
2024-09-30,1.379366639904501
2024-10-08,1.4174910601904573
2024-10-09,1.360787574389747
2024-10-10,1.3700430588402825
2024-10-11,1.3514772732802767
2024-10-14,1.3663635670958947
2024-10-15,1.3454917307509608
2024-10-16,1.3448467822283463
2024-10-17,1.3413897712025438
2024-10-18,1.3649646022960247
2024-10-21,1.364071663734386
2024-10-22,1.3666720494964917
2024-10-23,1.3737342782470348
2024-10-24,1.3610076053301665
2024-10-25,1.36874837183488
2024-10-28,1.3746902093958737
2024-10-29,1.3718176195019662
2024-10-30,1.36829254207315
2024-10-31,1.3662313690257286
2024-11-01,1.361185513880746
2024-11-04,1.3654959301600171
2024-11-05,1.3796560386025276
2024-11-06,1.374010310033398
2024-11-07,1.3927076342673013
2024-11-08,1.387829197375511
2024-11-11,1.3918627656237745
2024-11-12,1.3804088035084627
2024-11-13,1.3815135617352015
2024-11-14,1.369828748229278
2024-11-15,1.3566508841790745
2024-11-18,1.3494967314450996
2024-11-19,1.3541698871655181
2024-11-20,1.3567752285649206
2024-11-21,1.355972063200056
2024-11-22,1.3470496966811951
2024-11-25,1.3486276043257144
2024-11-26,1.348596195740064
2024-11-27,1.3488414537192157
2024-11-28,1.3480736812642653
2024-11-29,1.3482566567632117
2024-12-02,1.3493758791496333
2024-12-03,1.3520706918799215
2024-12-04,1.3528749983093853
2024-12-05,1.3542437210099592
2024-12-06,1.3537224040391744
2024-12-09,1.3562033784510374
2024-12-10,1.3553188002456613
2024-12-11,1.3512071769613883
2024-12-12,1.3612804155188833
2024-12-13,1.351997712213584
2024-12-16,1.3459574535341392
2024-12-17,1.344068454819626
2024-12-18,1.347352825402259
2024-12-19,1.342967755864446
2024-12-20,1.3395554810035575
2024-12-23,1.3439518115491298
2024-12-24,1.3470625184733012
2024-12-25,1.34811648007401
2024-12-26,1.3488736931381995
2024-12-27,1.346758108518004
2024-12-30,1.3443623492621009
2024-12-31,1.3411269569093893
2025-01-02,1.3406177668887755
2025-01-03,1.340118411713016
2025-01-06,1.3434015311300227
2025-01-07,1.3422562943659706
2025-01-08,1.3407760789730738
2025-01-09,1.3398264131859092
2025-01-10,1.3401648549897265
2025-01-13,1.3368012679248698
2025-01-14,1.3356166499921402
2025-01-15,1.3366167630185508
2025-01-16,1.337077287825185
2025-01-17,1.3374191714883399
2025-01-20,1.337140470970584
2025-01-21,1.3371729697952763
2025-01-22,1.3385804310547604
2025-01-23,1.3385468621916021
2025-01-24,1.3390633534331586
2025-01-27,1.338457156683508
2025-02-05,1.3528080294175395
2025-02-06,1.3554351315513264
2025-02-07,1.3638854639275884
2025-02-10,1.3764743250487828
2025-02-11,1.3722691819578485
2025-02-12,1.3846455500222008
2025-02-13,1.3889624319881362
2025-02-14,1.4014559329307281
2025-02-17,1.4032116357240192
2025-02-18,1.4014657034854414
2025-02-19,1.410180547912283
2025-02-20,1.4038247798304868
2025-02-21,1.424736522035335
2025-02-24,1.4246016308637848
2025-02-25,1.4091216167820768
2025-02-26,1.4276187819988249
2025-02-27,1.4236157379842662
2025-02-28,1.3964046125984066
2025-03-03,1.3981110582233618
2025-03-04,1.4012926182496237
2025-03-05,1.4079843688249143
2025-03-06,1.4245365130972203
2025-03-07,1.4228194103433298
2025-03-10,1.4166010771322213
2025-03-11,1.4142013343910964
2025-03-12,1.412432626408739
2025-03-13,1.4084287757960576
2025-03-14,1.4215098564533264
2025-03-17,1.4225053751703856
2025-03-18,1.4334251330521781
2025-03-19,1.4347845567706317
2025-03-20,1.4233079317711004
2025-03-21,1.4113872662889488
2025-03-24,1.4131360121139946
2025-03-25,1.4069308886908583
2025-03-26,1.4069754971223944
2025-03-27,1.4093420941801034
2025-03-28,1.4098813362820362
2025-03-31,1.4093133124900867
2025-04-01,1.4102954739442075
2025-04-02,1.4096955919125147
2025-04-03,1.4109867630988777
2025-04-07,1.4066545862669728
2025-04-08,1.4076242558347523
2025-04-09,1.409669646005742
2025-04-10,1.4132272056221904
2025-04-11,1.415670396989896
2025-04-14,1.4166946096315767
2025-04-15,1.416650340792588
2025-04-16,1.4206181805181046
2025-04-17,1.4218063403342198
2025-04-18,1.4221282637595851
2025-04-21,1.4247556817321743
2025-04-22,1.4300411440429355
2025-04-23,1.4204419312676677
2025-04-24,1.4221667391781592
2025-04-25,1.4210825109862943
2025-04-28,1.419718906793847
2025-04-29,1.420817256086808
2025-04-30,1.4198507555419146
2025-05-06,1.422747977584402
2025-05-07,1.4245150756560372
2025-05-08,1.4243339111590463
2025-05-09,1.4208742925974123
2025-05-12,1.4305484372230985
2025-05-13,1.4286156587022834
2025-05-14,1.445276811400638
2025-05-15,1.4349735163098
2025-05-16,1.4302398920554111
2025-05-19,1.4284906451053077
2025-05-20,1.4369299022798514
2025-05-21,1.437753394013946
2025-05-22,1.4295942096799417
2025-05-23,1.423862862157261
2025-05-26,1.4186432563306979
2025-05-27,1.4200215068620867
2025-05-28,1.4210026797523208
2025-05-29,1.4231163286532522
2025-05-30,1.4198309808109042
2025-06-03,1.4204390357445247
2025-06-04,1.42175198979673
2025-06-05,1.4213506115793242
2025-06-06,1.4208693610727605
2025-06-09,1.422920357580931
2025-06-10,1.4219164635191703
2025-06-11,1.4253730136517018
2025-06-12,1.4232758336351612
2025-06-13,1.4197099832681654
2025-06-16,1.4212235305608492
2025-06-17,1.4194028026196253
2025-06-18,1.4176414448991141
2025-06-19,1.4120235523702616
2025-06-20,1.4114422685462513
2025-06-23,1.4119994117792003
2025-06-24,1.409692148236583
2025-06-25,1.4171417411026803
2025-06-26,1.4143251853362688
2025-06-27,1.416169024268194
2025-06-30,1.4211753153281685
2025-07-01,1.420802047956124
2025-07-02,1.418987172009625
2025-07-03,1.4223946657975783
2025-07-04,1.4221051425492663
2025-07-07,1.4191142389438964
2025-07-08,1.4279339733426033
2025-07-09,1.4254176778792986
2025-07-10,1.4294437512888085
2025-07-11,1.4335189150122738
2025-07-14,1.4309802987381939
2025-07-15,1.4375345601718679
2025-07-16,1.4370442837454334
2025-07-17,1.442984053104761
2025-07-18,1.4493273954282215
2025-07-21,1.4570330592787637
2025-07-22,1.4621284882093268
2025-07-23,1.4704906742826287
2025-07-24,1.4761687100872822
2025-07-25,1.469523964227116
2025-07-28,1.4769251283763822
2025-07-29,1.4789878229677922
2025-07-30,1.4715713267002475
2025-07-31,1.4620127180493683
2025-08-01,1.4576568498390718
2025-08-04,1.458073828279157
2025-08-05,1.4623075627568864
2025-08-06,1.4666884004606944
2025-08-07,1.4660865433326216
2025-08-08,1.4608215633751616
2025-08-11,1.4668423709680645
2025-08-12,1.470837753253934
2025-08-13,1.485943327167336
2025-08-14,1.4807624422543608
2025-08-15,1.4897056397885273
2025-08-18,1.49861026885801
2025-08-19,1.4949187713874514
2025-08-20,1.4985424820518216
2025-08-21,1.4948327066927922
2025-08-22,1.5098327374994136
2025-08-25,1.5321089293141803
2025-08-26,1.5262517329446763
2025-08-27,1.5141163191777611
2025-08-28,1.5240329652130904
2025-08-29,1.5303619572495526
2025-09-01,1.5427347929461939
2025-09-02,1.533480476339461
2025-09-03,1.5308819452098283
2025-09-04,1.5137862160629163
2025-09-05,1.533373863124183
2025-09-08,1.536785864497407
2025-09-09,1.5361494755353595
2025-09-10,1.540630128979959
2025-09-11,1.5540085960669983
2025-09-12,1.5558211698454214
2025-09-15,1.5588377722602398
2025-09-16,1.5669729208015037
2025-09-17,1.5794321462696366
2025-09-18,1.5650459333445905
2025-09-19,1.5658997561319519
2025-09-22,1.5725735670512528
2025-09-23,1.5736864378026043
2025-09-24,1.591981423765472
2025-09-25,1.5951813027385018
2025-09-26,1.5825247397976219
2025-09-29,1.6030376898682985
2025-09-30,1.611746652321125
2025-10-09,1.6287953505156327
2025-10-10,1.603098896818576
2025-10-13,1.5918700483153725
2025-10-14,1.5861595027142612
2025-10-15,1.5967158432526354
2025-10-16,1.5982615392342727
2025-10-17,1.591961549540993
2025-10-20,1.5913213600238658
2025-10-21,1.5969111766767647
2025-10-22,1.5906158540654936
2025-10-23,1.5884747265251469
2025-10-24,1.5893915589081387
2025-10-27,1.5935601441466003
2025-10-28,1.5870848082156
2025-10-29,1.5929109856578796
2025-10-30,1.5869979474871858
2025-10-31,1.5802609087057486
2025-11-03,1.580469672486136
2025-11-04,1.572432824326111
2025-11-05,1.5718270723930323
2025-11-06,1.5810498255582777
2025-11-07,1.5775787117652633
2025-11-10,1.5789079054402644
2025-11-11,1.5756052177166893
2025-11-12,1.5786427743196663
2025-11-13,1.581702129728598
2025-11-14,1.570816316380522
2025-11-17,1.566741567659998
2025-11-18,1.5632378696433475
2025-11-19,1.5631849680810281
2025-11-20,1.5632768592063218
2025-11-21,1.5632290054471127
2025-11-24,1.5632491414247538
2025-11-25,1.5632529165313367
2025-11-26,1.5629748007878448
2025-11-27,1.5629748007878448
2025-11-28,1.5629748007878448
2025-12-01,1.5629748007878448
2025-12-02,1.5629748007878448
2025-12-03,1.5629748007878448
2025-12-04,1.5629748007878448
2025-12-05,1.5629748007878448
2025-12-08,1.5629748007878448
2025-12-09,1.5628879688544677
2025-12-10,1.5631057568718667
2025-12-11,1.5605149190242953
2025-12-12,1.5619216356641905
2025-12-15,1.5612244441630687
2025-12-16,1.5557942517669248
2025-12-17,1.5630925157537197
2025-12-18,1.559392987033038
2025-12-19,1.5601463410876317
2025-12-22,1.569540855554555
2025-12-23,1.5727942945774143
2025-12-24,1.5772403974243094
2025-12-25,1.5782286649218216
2025-12-26,1.5818830306989777
2025-12-29,1.5773829887091058
2025-12-30,1.5761635200195538
2025-12-31,1.5719121736830832
2026-01-05,1.5850764034537264
2026-01-06,1.5927907801200962
2026-01-07,1.591345292395662
2026-01-08,1.5869034180519916
2026-01-09,1.5943938521564278
2026-01-12,1.6047135576322455
2026-01-13,1.5995622221228505
2026-01-14,1.6076639752181698
2026-01-15,1.6033251129155646
2026-01-16,1.5999005574661131
2026-01-19,1.599496133354277
2026-01-20,1.5941463368609279
2026-01-21,1.6025939063184123
2026-01-22,1.6034437755766884
2026-01-23,1.6162739959561494
2026-01-26,1.6168725756524083
2026-01-27,1.6234127908414067
2026-01-28,1.6381391720603504
2026-01-29,1.6462228015509621
2026-01-30,1.6223241400458621
2026-02-02,1.5839146450605195
2026-02-03,1.5856301933293415
2026-02-04,1.5859390193907847
2026-02-05,1.5852812335107167
2026-02-06,1.5835954128032426
2026-02-09,1.5837045584881566
2026-02-10,1.5837007497957378
2026-02-11,1.5837819312715373
2026-02-12,1.5837674839273463
2026-02-13,1.5838816540760157
2026-02-24,1.5838244868196976
2026-02-25,1.5835858904572462
2026-02-26,1.5829899554164153
2026-02-27,1.5811725361903664
2026-03-02,1.5802373867546338
2026-03-03,1.5686924355194811
2026-03-04,1.567525153953057
2026-03-05,1.567454629524235
2026-03-06,1.567499757733844
2026-03-09,1.5672755576689872
2026-03-10,1.5671950432941755
2026-03-11,1.5671824866103623
2026-03-12,1.5671875051427793
2026-03-13,1.5672289069744834
2026-03-16,1.5669368628750713
2026-03-17,1.5629840987658137
2026-03-18,1.5664314597652726
2026-03-19,1.56460569928912
2026-03-20,1.5666048457168258
2026-03-23,1.5607148818758865
2026-03-24,1.5611981598949807
2026-03-25,1.5649477022355451
2026-03-26,1.5626331389311232
2026-03-27,1.5641419326232173
2026-03-30,1.5627206626721273
2026-03-31,1.5583233135286698
2026-04-01,1.5581750874281686
2026-04-02,1.55820622337993
2026-04-03,1.558201842136961
2026-04-07,1.558159883932584
2026-04-08,1.5579732293365995
2026-04-09,1.5553641867815169
2026-04-10,1.555668216612934
2026-04-13,1.556214437652425
2026-04-14,1.5628386052000847
2026-04-15,1.5641342913710452
2026-04-16,1.5755872715090575
2026-04-17,1.575600711426012
2026-04-20,1.5793438710459942
2026-04-21,1.5793250650891653
2026-04-22,1.582092443907631
2026-04-23,1.5756191559335835
2026-04-24,1.5710817472724024
2026-04-27,1.5717008899017715
2026-04-28,1.5640481353754883
2026-04-29,1.5735379423015312
2026-04-30,1.5731914151519277
2026-05-06,1.5893510863981348
2026-05-07,1.5991037247188757
2026-05-08,1.596132477446541
2026-05-11,1.6121306433725995
2026-05-12,1.6079936548847311
2026-05-13,1.6187946959846968
2026-05-14,1.6084364421915067
2026-05-15,1.6004874797922697
2026-05-18,1.592832844328675
2026-05-19,1.5934320847278356
2026-05-20,1.5958771807660603
2026-05-21,1.5882358263748142
2026-05-22,1.5964660713344807
2026-05-25,1.6073891681892223
2026-05-26,1.6046974765723478
2026-05-27,1.6079305209390085
2026-05-28,1.610871050601837
2026-05-29,1.6120647792193101
2026-06-01,1.6153819848601252
2026-06-02,1.6185230228758352
2026-06-03,1.6183908908167075
2026-06-04,1.6118722665230687
2026-06-05,1.6036922077346036
2026-06-08,1.5893285372690669
2026-06-09,1.589247758587749
2026-06-10,1.5890749426505253
2026-06-11,1.5890749426505253
2026-06-12,1.5890749426505253
2026-06-15,1.5890749426505253
2026-06-16,1.5890749426505253
2026-06-17,1.5889866607092669
2026-06-18,1.5924383441220913
2026-06-22,1.6044414195345922
2026-06-23,1.5884756502362138
2026-06-24,1.5947511638833838
2026-06-25,1.605342867305369
2026-06-26,1.588564459752127
2026-06-29,1.5936512627013621
2026-06-30,1.6051698424647072
2026-07-01,1.6004893398654247
2026-07-02,1.5794659513757263
2026-07-03,1.5804266220490688
2026-07-06,1.5785757312041617
2026-07-07,1.578581741257906
2026-07-08,1.578629753662138
2026-07-09,1.5785929471224385
2026-07-10,1.5786154749256855
2026-07-13,1.5786102167363574
2026-07-14,1.5786267028958068
2026-07-15,1.5784793187504265
2026-07-16,1.5842653177154686
2026-07-17,1.5731204122068414
2026-07-20,1.5839664022130802
2026-07-21,1.583439446792092
2026-07-22,1.5735541663044836
2026-07-23,1.575885389616422
2026-07-24,1.572845370743089
2026-07-27,1.57565992671778
2026-07-28,1.5761178149940904
2026-07-29,1.579738667201307
2026-07-30,1.5803456888847163
2026-07-31,1.5793453699911593
2026-08-03,1.5807394852376073
2026-08-04,1.5793661159259496
2026-08-05,1.587158872696142
2026-08-06,1.580930955068734
2026-08-07,1.5853467939776142
2026-08-10,1.5911289118445522
2026-08-11,1.5841476511045172
2026-08-12,1.5812418839459637
2026-08-13,1.5769400287549604
2026-08-14,1.5780418804477871
2026-08-17,1.5809756035630085
2026-08-18,1.5763083130908253
2026-08-19,1.5474244275971762
2026-08-20,1.5523735604794926
2026-08-21,1.5552748686134905
2026-08-24,1.558548879529451
2026-08-25,1.5580002962760267
2026-08-26,1.5575904408159562
2026-08-27,1.5562040814617966
2026-08-28,1.5566298327621966
2026-08-31,1.5504150914305201
2026-09-01,1.550104675080889
2026-09-02,1.5459417530244959
2026-09-03,1.5459365979558823
2026-09-04,1.5459365979558823
2026-09-07,1.545926287543729
2026-09-08,1.5459280045105237
2026-09-09,1.5459297214620558
2026-09-10,1.5459331553345959
2026-09-11,1.5459417398633373
2026-09-14,1.5459297113699841
2026-09-15,1.5459348621787636
2026-09-16,1.54592627009237
2026-09-17,1.5459279870591454
2026-09-18,1.5458421021709754
2026-09-21,1.5468104404218619
2026-09-22,1.5492076959940089
2026-09-23,1.5504897805529971
2026-09-24,1.5489275395481503
