date,equity
2017-01-18,1.0
2017-01-19,1.0
2017-01-20,1.0
2017-01-23,1.0
2017-01-24,1.0
2017-01-25,1.0
2017-01-26,1.0
2017-02-03,1.0
2017-02-06,1.0
2017-02-07,1.0
2017-02-08,1.0
2017-02-09,1.0
2017-02-10,1.0
2017-02-13,1.0
2017-02-14,1.0
2017-02-15,1.0
2017-02-16,1.0
2017-02-17,1.0
2017-02-20,1.0
2017-02-21,1.0
2017-02-22,0.9997777777777778
2017-02-23,0.9987931362600146
2017-02-24,0.9986385109136511
2017-02-27,0.9955751240176645
2017-02-28,0.9953599000720035
2017-03-01,0.9950675641814899
2017-03-02,0.9962732323376376
2017-03-03,0.994089044938804
2017-03-06,0.9999095786788681
2017-03-07,0.9992427363525901
2017-03-08,0.9974248160086839
2017-03-09,0.9942524851342355
2017-03-10,0.9953898638701398
2017-03-13,0.9986542806045645
2017-03-14,0.9980906937845605
2017-03-15,0.9976336633834602
2017-03-16,1.0000832275524898
2017-03-17,0.9977478003350179
2017-03-20,1.000979345648298
2017-03-21,1.004402801585006
2017-03-22,0.994726795382233
2017-03-23,0.9952502742064951
2017-03-24,0.9974204261979264
2017-03-27,0.9931578756765335
2017-03-28,0.9942429032585208
2017-03-29,0.9932298791690768
2017-03-30,0.9895677042995236
2017-03-31,0.9894476262692932
2017-04-05,0.9912246675457275
2017-04-06,0.990220049624543
2017-04-07,0.9912792838741653
2017-04-10,0.9915719724353896
2017-04-11,0.992773104814652
2017-04-12,0.9922481467178795
2017-04-13,0.9937920352562526
2017-04-14,0.9914065181541852
2017-04-17,0.9894050291182623
2017-04-18,0.9886268220799466
2017-04-19,0.9859328433161032
2017-04-20,0.9862639527891106
2017-04-21,0.9873370569393158
2017-04-24,0.9879177212354967
2017-04-25,0.9895524616513315
2017-04-26,0.9920998887997304
2017-04-27,0.9908049058975533
2017-04-28,0.9918349789528547
2017-05-02,0.9936494761148918
2017-05-03,0.9939790780390986
2017-05-04,0.9926869596536765
2017-05-05,0.9900704270004446
2017-05-08,0.9950970621521181
2017-05-09,1.0001654527866497
2017-05-10,1.0020257644203394
2017-05-11,1.0021527678210171
2017-05-12,1.0012454479054937
2017-05-15,1.0055972649087153
2017-05-16,1.004378225836627
2017-05-17,1.0059670356466683
2017-05-18,1.0012301380990418
2017-05-19,1.0015788117234623
2017-05-22,1.0067618907632114
2017-05-23,1.009549405817784
2017-05-24,1.005936108416842
2017-05-25,1.0064344720188179
2017-05-26,1.0060557181212268
2017-05-31,1.003562292028919
2017-06-01,1.002110074768955
2017-06-02,1.0049826497361682
2017-06-05,1.0042788263554545
2017-06-06,1.0047953383967831
2017-06-07,1.0055895391700367
2017-06-08,1.0061193105318722
2017-06-09,1.0057282698636762
2017-06-12,1.0029861015508792
2017-06-13,1.0023863737314602
2017-06-14,1.001867717150714
2017-06-15,0.9995782307541812
2017-06-16,0.9989386866004046
2017-06-19,1.000679145241256
2017-06-20,1.0009025074282878
2017-06-21,1.0024518059557481
2017-06-22,0.9990369232751692
2017-06-23,1.0012129150090494
2017-06-26,1.0054022313690862
2017-06-27,1.005061851183909
2017-06-28,1.0032294275273315
2017-06-29,1.0049007874201858
2017-06-30,1.0052693221019822
2017-07-03,1.0065508918298613
2017-07-04,1.0045968048211829
2017-07-05,1.0069910126630788
2017-07-06,1.0064176097723412
2017-07-07,1.0068606091458125
2017-07-10,1.0044090304231703
2017-07-11,1.0039768069541277
2017-07-12,1.0035766567434117
2017-07-13,1.0058883254396989
2017-07-14,1.005714070934079
2017-07-17,1.0056006782259461
2017-07-18,1.0051694324654965
2017-07-19,1.0115721803113311
2017-07-20,1.0114989637624017
2017-07-21,1.0113296614353589
2017-07-24,1.0122140540325213
2017-07-25,1.0125117982789662
2017-07-26,1.012209101925599
2017-07-27,1.0176795181006406
2017-07-28,1.015144391752838
2017-07-31,1.0202396125579773
2017-08-01,1.022750560252341
2017-08-02,1.0230243592530675
2017-08-03,1.0167203301677146
2017-08-04,1.015605334148818
2017-08-07,1.0190149629734333
2017-08-08,1.0212660479164188
2017-08-09,1.021079123468977
2017-08-10,1.018693138767604
2017-08-11,1.0081389322714467
2017-08-14,1.0078981911849951
2017-08-15,1.007555691653662
2017-08-16,1.0088581214697514
2017-08-17,1.0106680796145726
2017-08-18,1.0094744820784378
2017-08-21,1.0103645376883703
2017-08-22,1.0091100522250092
2017-08-23,1.007723045428475
2017-08-24,1.0062472865423675
2017-08-25,1.008454448205989
2017-08-28,1.0134996031650396
2017-08-29,1.0133015885050618
2017-08-30,1.013537274991283
2017-08-31,1.0140792989961847
2017-09-01,1.0168292864442867
2017-09-04,1.0198068352004939
2017-09-05,1.0200207066233904
2017-09-06,1.021521593635507
2017-09-07,1.0191183360026355
2017-09-08,1.019037405928542
2017-09-11,1.021058490079653
2017-09-12,1.0197329831822703
2017-09-13,1.0208405021173388
2017-09-14,1.0193741709509354
2017-09-15,1.0191554193046792
2017-09-18,1.022819142143926
2017-09-19,1.0229097303004615
2017-09-20,1.0246168620804905
2017-09-21,1.0208467332004543
2017-09-22,1.0182578676859344
2017-09-25,1.0160772469275454
2017-09-26,1.0139987806896225
2017-09-27,1.0146832752693296
2017-09-28,1.0154616998161363
2017-09-29,1.0156665213010363
2017-10-09,1.0213669312741447
2017-10-10,1.022151766845494
2017-10-11,1.0238027078276408
2017-10-12,1.0254328696010329
2017-10-13,1.0258397154699868
2017-10-16,1.023510295040838
2017-10-17,1.0248567118765155
2017-10-18,1.0235447053254645
2017-10-19,1.02287697697341
2017-10-20,1.023385176251481
2017-10-23,1.0228255694101303
2017-10-24,1.0214566320490155
2017-10-25,1.0223491417032835
2017-10-26,1.0228773243648108
2017-10-27,1.022661080143731
2017-10-30,1.0220919116649356
2017-10-31,1.0222298771318437
2017-11-01,1.02244723943031
2017-11-02,1.0222978249353705
2017-11-03,1.0221679076650607
2017-11-06,1.023464959315287
2017-11-07,1.02473647128446
2017-11-08,1.0246613842393029
2017-11-09,1.0263855813655856
2017-11-10,1.0272060685843771
2017-11-13,1.027920213137558
2017-11-14,1.0262787292035531
2017-11-15,1.0223094797911005
2017-11-16,1.0235378687951555
2017-11-17,1.0225024348816836
2017-11-20,1.0244509473914174
2017-11-21,1.029880944659936
2017-11-22,1.0324235033708173
2017-11-23,1.027380616045156
2017-11-24,1.0284643938658693
2017-11-27,1.0275457029841426
2017-11-28,1.0247167991292416
2017-11-29,1.026163356881077
2017-11-30,1.019694402802591
2017-12-01,1.0181242824972088
2017-12-04,1.019183884724531
2017-12-05,1.016021969615191
2017-12-06,1.0139458746975902
2017-12-07,1.0145244343730724
2017-12-08,1.014441939896887
2017-12-11,1.0144225767506783
2017-12-12,1.0143695747865606
2017-12-13,1.0143807814607002
2017-12-14,1.0144133798123058
2017-12-15,1.0144398591621608
2017-12-18,1.014452740612012
2017-12-19,1.0152394403510898
2017-12-20,1.015035333799902
2017-12-21,1.0143229376033678
2017-12-22,1.0147142828098963
2017-12-25,1.0143947519854215
2017-12-26,1.0143642081427173
2017-12-27,1.0130318534061602
2017-12-28,1.0121537557664537
2017-12-29,1.0120975250022444
2018-01-02,1.012478232734191
2018-01-03,1.0144175945798675
2018-01-04,1.0168050040029222
2018-01-05,1.0168137324423374
2018-01-08,1.0207846996642247
2018-01-09,1.0238918678692264
2018-01-10,1.024301949176446
2018-01-11,1.0229667014614747
2018-01-12,1.0268313632290824
2018-01-15,1.0200408328893136
2018-01-16,1.02343543220214
2018-01-17,1.0202905505948718
2018-01-18,1.0228390076244533
2018-01-19,1.0215778331012872
2018-01-22,1.0239843193586409
2018-01-23,1.0290847140337995
2018-01-24,1.032135219069678
2018-01-25,1.0290506506628694
2018-01-26,1.031853155165482
2018-01-29,1.0291613266385229
2018-01-30,1.0221119001894496
2018-01-31,1.016527424333556
2018-02-01,1.0145734971561988
2018-02-02,1.012322068291143
2018-02-05,1.0082120738956453
2018-02-06,1.0081979735780746
2018-02-07,1.0082633884890793
2018-02-08,1.008255334446012
2018-02-09,1.0086074082979446
2018-02-12,1.0087327986124364
2018-02-13,1.008674751868232
2018-02-14,1.008719711281762
2018-02-22,1.0084730730050404
2018-02-23,1.0084375027157821
2018-02-26,1.0084624847966595
2018-02-27,1.0085838558261742
2018-02-28,1.0087417806227703
2018-03-01,1.0089904024241354
2018-03-02,1.0090887363213317
2018-03-05,1.0090942469062805
2018-03-06,1.0089760332020725
2018-03-07,1.0079312730416954
2018-03-08,1.0084881067400133
2018-03-09,1.0129028625000083
2018-03-12,1.015397507766087
2018-03-13,1.0143561347039844
2018-03-14,1.0076115732769948
2018-03-15,1.008948822982903
2018-03-16,1.0081406280121639
2018-03-19,1.009820194978535
2018-03-20,1.0087597036181812
2018-03-21,1.0046958601267346
2018-03-22,1.0016999867870233
2018-03-23,0.990339158959851
2018-03-26,0.99067044843186
2018-03-27,0.9904096782071979
2018-03-28,0.989826951924725
2018-03-29,0.9881629089748584
2018-03-30,0.9885236666010819
2018-04-02,0.9883988467222269
2018-04-03,0.9878672499343075
2018-04-04,0.9856940407700673
2018-04-09,0.985941659884737
2018-04-10,0.9857329977318787
2018-04-11,0.9862057553778083
2018-04-12,0.9860344332894947
2018-04-13,0.9853884503453963
2018-04-16,0.986089330301313
2018-04-17,0.986218497179467
2018-04-18,0.9865157980870712
2018-04-19,0.9865068333339942
2018-04-20,0.9859379198400307
2018-04-23,0.9853951731019985
2018-04-24,0.9851613665101814
2018-04-25,0.9852500292926685
2018-04-26,0.9852182209679731
2018-04-27,0.9852644584511897
2018-05-02,0.9851287643920936
2018-05-03,0.9841629461818785
2018-05-04,0.9826364290220979
2018-05-07,0.982511773916443
2018-05-08,0.9841316083524689
2018-05-09,0.9848905804352827
2018-05-10,0.9891079279003548
2018-05-11,0.9896702735588017
2018-05-14,0.9904155257260163
2018-05-15,0.9918236063786049
2018-05-16,0.9874095623139638
2018-05-17,0.9882570346169774
2018-05-18,0.9897273053843259
2018-05-21,0.9933967853180841
2018-05-22,0.9911046656735512
2018-05-23,0.9836599686388716
2018-05-24,0.9836429871116331
2018-05-25,0.9802864386033219
2018-05-28,0.9817467283401272
2018-05-29,0.9805671353034768
2018-05-30,0.9778128309563885
2018-05-31,0.979275007916805
2018-06-01,0.9788964380701001
2018-06-04,0.980973842706529
2018-06-05,0.9821214858168729
2018-06-06,0.9833663034365204
2018-06-07,0.9860125529301802
2018-06-08,0.981179041963999
2018-06-11,0.984060708410112
2018-06-12,0.9853471348938587
2018-06-13,0.9852185821167281
2018-06-14,0.9815053775358211
2018-06-15,0.9860694072683687
2018-06-19,0.9785858181281051
2018-06-20,0.9805032512093339
2018-06-21,0.9830071608248732
2018-06-22,0.9826163541585009
2018-06-25,0.9799962681783844
2018-06-26,0.9755296617260246
2018-06-27,0.974613267767467
2018-06-28,0.974320118865749
2018-06-29,0.9749082617164007
2018-07-02,0.97489496882036
2018-07-03,0.9748294466874805
2018-07-04,0.9749907721192645
2018-07-05,0.9749512371770416
2018-07-06,0.9749562367731347
2018-07-09,0.9748316315687399
2018-07-10,0.9760160729557044
2018-07-11,0.9738798629221255
2018-07-12,0.9748626612945701
2018-07-13,0.9760496734407804
2018-07-16,0.9754389746280367
2018-07-17,0.9744749811441918
2018-07-18,0.9751664730449807
2018-07-19,0.9744806701259058
2018-07-20,0.9760660467742847
2018-07-23,0.9762299639241309
2018-07-24,0.9822900598044859
2018-07-25,0.9832098073632431
2018-07-26,0.9794685650694832
2018-07-27,0.9778412833848433
2018-07-30,0.9704736599961494
2018-07-31,0.9685006349433152
2018-08-01,0.9656105004676901
2018-08-02,0.960745452789992
2018-08-03,0.9640480491799297
2018-08-06,0.9667348579974033
2018-08-07,0.9662518531534187
2018-08-08,0.96442869337063
2018-08-09,0.9628319560602994
2018-08-10,0.9624735929692632
2018-08-13,0.9620624777473143
2018-08-14,0.9630584396956198
2018-08-15,0.9639274747347267
2018-08-16,0.9620296017079479
2018-08-17,0.9622704236814138
2018-08-20,0.9616962265526156
2018-08-21,0.9616962265526156
2018-08-22,0.9616962265526156
2018-08-23,0.9616962265526156
2018-08-24,0.9616962265526156
2018-08-27,0.9616962265526156
2018-08-28,0.9616962265526156
2018-08-29,0.9616962265526156
2018-08-30,0.9616962265526156
2018-08-31,0.9616962265526156
2018-09-03,0.9616962265526156
2018-09-04,0.9616962265526156
2018-09-05,0.9616962265526156
2018-09-06,0.9616962265526156
2018-09-07,0.9616962265526156
2018-09-10,0.9616962265526156
2018-09-11,0.9616962265526156
2018-09-12,0.9616962265526156
2018-09-13,0.9616962265526156
2018-09-14,0.9616427989844737
2018-09-17,0.9611099140655374
2018-09-18,0.9612168705119476
2018-09-19,0.9613237317855016
2018-09-20,0.9614304980659749
2018-09-21,0.9615904282043526
2018-09-25,0.9602725248236575
2018-09-26,0.9615686328982346
2018-09-27,0.9606815861572647
2018-09-28,0.9608500792640191
2018-10-08,0.9563197528721203
2018-10-09,0.9564928983004033
2018-10-10,0.9560946451503979
2018-10-11,0.9512412368977918
2018-10-12,0.9528540114364235
2018-10-15,0.9539935547914619
2018-10-16,0.9539811906373789
2018-10-17,0.9537250808065427
2018-10-18,0.9540443924000497
2018-10-19,0.9544921683989724
2018-10-22,0.9541392583560452
2018-10-23,0.9546769950616004
2018-10-24,0.954798601022437
2018-10-25,0.9552391965654748
2018-10-26,0.955135450320951
2018-10-29,0.9550444663167694
2018-10-30,0.9547005878176941
2018-10-31,0.9539167027098427
2018-11-01,0.9542005440804746
2018-11-02,0.9539468772078182
2018-11-05,0.9540496385987554
2018-11-06,0.9540496385987554
2018-11-07,0.9540993087159676
2018-11-08,0.9538220817082471
2018-11-09,0.9534008742494375
2018-11-12,0.9535058352673075
2018-11-13,0.9571623929483476
2018-11-14,0.9563982395959254
2018-11-15,0.9599644173630119
2018-11-16,0.96041739603598
2018-11-19,0.959765029636313
2018-11-20,0.9521835906104854
2018-11-21,0.9531231800934257
2018-11-22,0.9525614069003622
2018-11-23,0.9439297868893262
2018-11-26,0.9458592574797386
2018-11-27,0.945929571246424
2018-11-28,0.9473350112792644
2018-11-29,0.9460838474434595
2018-11-30,0.9469963115586386
2018-12-03,0.9484590118932485
2018-12-04,0.9477015048356806
2018-12-05,0.946939125194666
2018-12-06,0.9442529243847244
2018-12-07,0.9445981380138264
2018-12-10,0.9444025577626134
2018-12-11,0.9443413352435658
2018-12-12,0.9438550706972206
2018-12-13,0.9436868854465373
2018-12-14,0.9434478805985943
2018-12-17,0.9435329944355141
2018-12-18,0.9442199222606307
2018-12-19,0.9446513950739689
2018-12-20,0.9444803643560499
2018-12-21,0.945400098005545
2018-12-24,0.9457845956653587
2018-12-25,0.9465356439734032
2018-12-26,0.9465239786276824
2018-12-27,0.9461637433665764
2018-12-28,0.9472296105930501
2019-01-02,0.9472937849075697
2019-01-03,0.948549424422796
2019-01-04,0.9481674840634261
2019-01-07,0.947890999019252
2019-01-08,0.9473898716967477
2019-01-09,0.946963530614288
2019-01-10,0.9471538971799132
2019-01-11,0.9463778105169564
2019-01-14,0.9462718822887258
2019-01-15,0.9462454483075806
2019-01-16,0.9467586504436393
2019-01-17,0.9462000985502945
2019-01-18,0.9472809420506146
2019-01-21,0.9506887167063811
2019-01-22,0.9454236891850483
2019-01-23,0.9426693003754415
2019-01-24,0.9449558433502184
2019-01-25,0.949848596307311
2019-01-28,0.9492702911604392
2019-01-29,0.9470239733057073
2019-01-30,0.9457011813829984
2019-01-31,0.9529415008426085
2019-02-01,0.9583728750398419
2019-02-11,0.9621887363265095
2019-02-12,0.9660797215429916
2019-02-13,0.9753521429046635
2019-02-14,0.9748329644216688
2019-02-15,0.9677541109981057
2019-02-18,0.9844257103886295
2019-02-19,0.9810363027828455
2019-02-20,0.9818698401398785
2019-02-21,0.9830005283827223
2019-02-22,0.9930223174929292
2019-02-25,1.0175605642433816
2019-02-26,1.009960623494084
2019-02-27,1.006698968315702
2019-02-28,1.0067853812364749
2019-03-01,1.0147045869358438
2019-03-04,1.0241458113527242
2019-03-05,1.0328226687158482
2019-03-06,1.0404105067950298
2019-03-07,1.0358782070695427
2019-03-08,1.0194936166447905
2019-03-11,1.0312636919479117
2019-03-12,1.0374697261865393
2019-03-13,1.0272712570902942
2019-03-14,1.0225440038432791
2019-03-15,1.0265933580235118
2019-03-18,1.039891106241585
2019-03-19,1.0390742842067988
2019-03-20,1.0371855061228659
2019-03-21,1.0369137289540011
2019-03-22,1.0402346294974008
2019-03-25,1.025786588577404
2019-03-26,1.019311017078064
2019-03-27,1.0232797527568005
2019-03-28,1.0203880570073844
2019-03-29,1.0304915545844466
2019-04-01,1.0409139018887983
2019-04-02,1.041230861675901
2019-04-03,1.0454605264555856
2019-04-04,1.0466159853091366
2019-04-08,1.0450810263443098
2019-04-09,1.0481490392346204
2019-04-10,1.0471577678772443
2019-04-11,1.039654491883702
2019-04-12,1.0373213740844012
2019-04-15,1.0349265552282199
2019-04-16,1.0429436514566905
2019-04-17,1.0417807962904502
2019-04-18,1.0395965313286404
2019-04-19,1.0440371756325562
2019-04-22,1.0369720287760744
2019-04-23,1.0360473128413739
2019-04-24,1.0376204929741009
2019-04-25,1.0355194140338184
2019-04-26,1.036274020298126
2019-04-29,1.0376861168939477
2019-04-30,1.0373415280747862
2019-05-06,1.0340250016420565
2019-05-07,1.0352963512105926
2019-05-08,1.033088472316847
2019-05-09,1.0322975496809073
2019-05-10,1.0324155521146576
2019-05-13,1.0320074144754197
2019-05-14,1.0318500267538795
2019-05-15,1.0313135828366868
2019-05-16,1.0318778822437598
2019-05-17,1.031946489532812
2019-05-20,1.0311798217845969
2019-05-21,1.030986578053596
2019-05-22,1.0309671694795823
2019-05-23,1.031404275734882
2019-05-24,1.0321249624340405
2019-05-27,1.0318524786027885
2019-05-28,1.0318999541184481
2019-05-29,1.0321942526508783
2019-05-30,1.0317835070190604
2019-05-31,1.0331946840160837
2019-06-03,1.0346058012690613
2019-06-04,1.0358641047208499
2019-06-05,1.0366418137209514
2019-06-06,1.0365794881295942
2019-06-10,1.0361052706312728
2019-06-11,1.0352945758461605
2019-06-12,1.0367028124907087
2019-06-13,1.0369080381915858
2019-06-14,1.038796136022899
2019-06-17,1.037335572207736
2019-06-18,1.0381217766584787
2019-06-19,1.0388961605008862
2019-06-20,1.046409709436785
2019-06-21,1.049215988276961
2019-06-24,1.050098474533464
2019-06-25,1.0450931739492715
2019-06-26,1.0427835027698775
2019-06-27,1.050909340745332
2019-06-28,1.0486448023109451
2019-07-01,1.064152856327269
2019-07-02,1.0647306578906273
2019-07-03,1.0646490588297193
2019-07-04,1.0619681252348045
2019-07-05,1.06530015108108
2019-07-08,1.0492079829721883
2019-07-09,1.0460570338722877
2019-07-10,1.0480208061621055
2019-07-11,1.0520896517680767
2019-07-12,1.0524596994532438
2019-07-15,1.0563014300950806
2019-07-16,1.057728594474418
2019-07-17,1.056271888361334
2019-07-18,1.052417493661247
2019-07-19,1.0601171364040578
2019-07-22,1.0532996832638744
2019-07-23,1.0563074065689986
2019-07-24,1.0626996947696454
2019-07-25,1.066278019850183
2019-07-26,1.0637817452533835
2019-07-29,1.0619409136323144
2019-07-30,1.064730833055901
2019-07-31,1.0609502576745635
2019-08-01,1.0563829810002996
2019-08-02,1.0510855114717974
2019-08-05,1.0518792618743487
2019-08-06,1.0505027602895547
2019-08-07,1.0524924630609183
2019-08-08,1.053334500700685
2019-08-09,1.0541586002637369
2019-08-12,1.0536373374759307
2019-08-13,1.0564671459676227
2019-08-14,1.0533876697302333
2019-08-15,1.0546878476977581
2019-08-16,1.0547736777969081
2019-08-19,1.0539782233533852
2019-08-20,1.0523104335015308
2019-08-21,1.0522741550926151
2019-08-22,1.0528457387172185
2019-08-23,1.052560230749393
2019-08-26,1.0556343657519776
2019-08-27,1.0577242576598762
2019-08-28,1.0576815632502174
2019-08-29,1.0587961032317417
2019-08-30,1.0552966727467852
2019-09-02,1.0604716142405965
2019-09-03,1.0616477791710046
2019-09-04,1.0667595923756297
2019-09-05,1.0705076406956806
2019-09-06,1.0703406689368125
2019-09-09,1.0778563774057426
2019-09-10,1.0726032605037599
2019-09-11,1.0730657445600191
2019-09-12,1.0772519409214572
2019-09-16,1.0737793705297867
2019-09-17,1.0645443447109157
2019-09-18,1.0666315495303176
2019-09-19,1.0689120460867596
2019-09-20,1.0703887300434736
2019-09-23,1.0650313061329928
2019-09-24,1.065131453213403
2019-09-25,1.0565475589679054
2019-09-26,1.0564829946640646
2019-09-27,1.0564829946640646
2019-09-30,1.056424301164361
2019-10-08,1.0563585783139298
2019-10-09,1.0563538814881446
2019-10-10,1.0563585743076689
2019-10-11,1.0563632669603347
2019-10-14,1.0563491769839595
2019-10-15,1.0563620826964504
2019-10-16,1.056304569045947
2019-10-17,1.0562570934287696
2019-10-18,1.0561445677340005
2019-10-21,1.0554115250178535
2019-10-22,1.0564188758329218
2019-10-23,1.0550072723456279
2019-10-24,1.0556564806651927
2019-10-25,1.055980062036411
2019-10-28,1.0573124901681683
2019-10-29,1.0565331421602782
2019-10-30,1.0554618342257054
2019-10-31,1.055278768831728
2019-11-01,1.0566138905697164
2019-11-04,1.0606100979705195
2019-11-05,1.0651738288418728
2019-11-06,1.0633469115075487
2019-11-07,1.063955287601181
2019-11-08,1.0635456143050406
2019-11-11,1.0564202039323642
2019-11-12,1.0591685180100394
2019-11-13,1.0575441204411695
2019-11-14,1.0563171863239875
2019-11-15,1.0553369569733408
2019-11-18,1.0582660875446508
2019-11-19,1.0625078178456837
2019-11-20,1.060274747220158
2019-11-21,1.0577558684407269
2019-11-22,1.0553503812097398
2019-11-25,1.0547738070878443
2019-11-26,1.0565537657350181
2019-11-27,1.0575134589990465
2019-11-28,1.0599843486632194
2019-11-29,1.058683121805833
2019-12-02,1.060056175077661
2019-12-03,1.058245928425167
2019-12-04,1.0562209278929087
2019-12-05,1.0565393961176817
2019-12-06,1.0572879475325903
2019-12-09,1.0574961805226615
2019-12-10,1.0570979462748065
2019-12-11,1.055756700155697
2019-12-12,1.0589802680594596
2019-12-13,1.0659255461021864
2019-12-16,1.071036853198066
2019-12-17,1.079181325265843
2019-12-18,1.0771331240935103
2019-12-19,1.076940331483136
2019-12-20,1.0768094436371618
2019-12-23,1.0722751453229844
2019-12-24,1.079573868018126
2019-12-25,1.0789018980933065
2019-12-26,1.0845417654770604
2019-12-27,1.0862575951209739
2019-12-30,1.0892673834578948
2019-12-31,1.0882763398267337
2020-01-02,1.099853613680635
2020-01-03,1.1032213246693825
2020-01-06,1.1035415501845407
2020-01-07,1.1114923979747815
2020-01-08,1.104150242897098
2020-01-09,1.1134867304269538
2020-01-10,1.1198120838907504
2020-01-13,1.126913116847772
2020-01-14,1.1227780766583275
2020-01-15,1.1228410230337296
2020-01-16,1.1231749758171565
2020-01-17,1.123911262945086
2020-01-20,1.1286492892366087
2020-01-21,1.119649704513611
2020-01-22,1.1236632516787501
2020-01-23,1.1141425223247252
2020-02-03,1.102931494115196
2020-02-04,1.1007610713675493
2020-02-05,1.1000533873879679
2020-02-06,1.1029176927639657
2020-02-07,1.1051640170728534
2020-02-10,1.107978130615826
2020-02-11,1.1113821889388684
2020-02-12,1.11787396284874
2020-02-13,1.124575878133316
2020-02-14,1.119043239603424
2020-02-17,1.123427299329528
2020-02-18,1.1204758921962972
2020-02-19,1.116135500726868
2020-02-20,1.123827074783453
2020-02-21,1.1265581081325209
2020-02-24,1.124029102352252
2020-02-25,1.1232976755326036
2020-02-26,1.115476298814873
2020-02-27,1.1160090797895592
2020-02-28,1.1014527595743526
2020-03-02,1.1066081861185664
2020-03-03,1.1093473275350005
2020-03-04,1.1122013416794796
2020-03-05,1.1156072798789085
2020-03-06,1.1148836418346788
2020-03-09,1.1008471980154408
2020-03-10,1.1069455136748858
2020-03-11,1.10235066980768
2020-03-12,1.0945777480273564
2020-03-13,1.087870032314564
2020-03-16,1.0818412173657999
2020-03-17,1.0815721292423661
2020-03-18,1.0815721292423661
2020-03-19,1.081207519865283
2020-03-20,1.081147452780846
2020-03-23,1.0811258286548078
2020-03-24,1.081123425589829
2020-03-25,1.0811102084974782
2020-03-26,1.081111409101114
2020-03-27,1.0811174120659461
2020-03-30,1.0810357402747413
2020-03-31,1.0809756827336148
2020-04-01,1.0811994482810459
2020-04-02,1.081051028029442
2020-04-03,1.080995068062877
2020-04-07,1.081500833093529
2020-04-08,1.0792000658350809
2020-04-09,1.0792557046815665
2020-04-10,1.0790409919843922
2020-04-13,1.0780091702373467
2020-04-14,1.0818111069772998
2020-04-15,1.0806642882543744
2020-04-16,1.083289361755595
2020-04-17,1.0867515764803635
2020-04-20,1.0883297764898758
2020-04-21,1.0821022664874496
2020-04-22,1.0896479946616602
2020-04-23,1.091084334886915
2020-04-24,1.0859275480526849
2020-04-27,1.093094813088623
2020-04-28,1.0984760898095758
2020-04-29,1.1024920451111397
2020-04-30,1.1112458289162161
2020-05-06,1.1099743181945547
2020-05-07,1.1068209885655764
2020-05-08,1.1138691783871082
2020-05-11,1.1124406368913715
2020-05-12,1.1100549961367858
2020-05-13,1.1130976386017242
2020-05-14,1.1066728557265268
2020-05-15,1.108382969871248
2020-05-18,1.1134613064209782
2020-05-19,1.1223688293182659
2020-05-20,1.1214450585403857
2020-05-21,1.1150114635132427
2020-05-22,1.1089124782251425
2020-05-25,1.111477520229493
2020-05-26,1.1182282958439962
2020-05-27,1.1144813080419755
2020-05-28,1.1135813847976994
2020-05-29,1.1129316779547733
2020-06-01,1.118456406106371
2020-06-02,1.1168130758716321
2020-06-03,1.1184185931790407
2020-06-04,1.121361257397293
2020-06-05,1.1230131178489478
2020-06-08,1.123331074764801
2020-06-09,1.1290153385625799
2020-06-10,1.131023286468115
2020-06-11,1.1281446604417702
2020-06-12,1.1240077466268468
2020-06-15,1.1180094823081064
2020-06-16,1.1301758139308555
2020-06-17,1.1344609135097867
2020-06-18,1.1364861569093783
2020-06-19,1.1432905488651475
2020-06-22,1.142944027128734
2020-06-23,1.1528634838547749
2020-06-24,1.1580683980009192
2020-06-29,1.1477311068788254
2020-06-30,1.156270995318008
2020-07-01,1.160104634270062
2020-07-02,1.1691536950714416
2020-07-03,1.1806981786182784
2020-07-06,1.205964422011952
2020-07-07,1.2100953606114238
2020-07-08,1.219721830134599
2020-07-09,1.2354799476291596
2020-07-10,1.2313351184401413
2020-07-13,1.249304553419183
2020-07-14,1.2366511409582372
2020-07-15,1.2269235105649205
2020-07-16,1.1948212942374494
2020-07-17,1.2018429794505456
2020-07-20,1.2101487302937215
2020-07-21,1.2266565127784168
2020-07-22,1.2328187089848082
2020-07-23,1.2325513960950767
2020-07-24,1.2022737195168431
2020-07-27,1.2063448787493358
2020-07-28,1.2113988308065462
2020-07-29,1.2159018282946363
2020-07-30,1.2130201214426952
2020-07-31,1.2183743922312473
2020-08-03,1.2202260540489105
2020-08-04,1.2254934345141868
2020-08-05,1.230118644516793
2020-08-06,1.2300181278028175
2020-08-07,1.227014729409725
2020-08-10,1.22361803777826
2020-08-11,1.2187282309065497
2020-08-12,1.2090071542740695
2020-08-13,1.2118403779271163
2020-08-14,1.211608407077395
2020-08-17,1.2117068955633172
2020-08-18,1.2113690526924146
2020-08-19,1.2089037834035117
2020-08-20,1.206104257146179
2020-08-21,1.2113432610236745
2020-08-24,1.2185551325345414
2020-08-25,1.225781034678593
2020-08-26,1.2232061659792715
2020-08-27,1.2322849223493628
2020-08-28,1.2392749392945592
2020-08-31,1.243159161712155
2020-09-01,1.239859037821365
2020-09-02,1.248342973169734
2020-09-03,1.2466015682282385
2020-09-04,1.2260009508285987
2020-09-07,1.2076331450510451
2020-09-08,1.2123855638740233
2020-09-09,1.2077814513460818
2020-09-10,1.2077814513460818
2020-09-11,1.2077814513460818
2020-09-14,1.2077814513460818
2020-09-15,1.2077814513460818
2020-09-16,1.2077814513460818
2020-09-17,1.2077814513460818
2020-09-18,1.2077814513460818
2020-09-21,1.2077814513460818
2020-09-22,1.2077143523765625
2020-09-23,1.207675994258407
2020-09-24,1.2075652755668747
2020-09-25,1.2074270499193462
2020-09-28,1.2073161484798811
2020-09-29,1.2071974736355795
2020-09-30,1.2070798206538274
2020-10-09,1.2067659327701175
2020-10-12,1.2064776599426021
2020-10-13,1.208258424725338
2020-10-14,1.2075287662096006
2020-10-15,1.2028401115327971
2020-10-16,1.2022207629061794
2020-10-19,1.2008899974973792
2020-10-20,1.2036139735973626
2020-10-21,1.2033513324265002
2020-10-22,1.2006591110134903
2020-10-23,1.194392545254606
2020-10-26,1.1934865667023198
2020-10-27,1.1963542527606443
2020-10-28,1.2009812341775894
2020-10-29,1.2014058278602866
2020-10-30,1.197652409383523
2020-11-02,1.1980821916874862
2020-11-03,1.1993312541118446
2020-11-04,1.1989367148207568
2020-11-05,1.204754244630397
2020-11-06,1.2001878303229006
2020-11-09,1.2121853785283274
2020-11-10,1.2055906300498893
2020-11-11,1.193859022724088
2020-11-12,1.1939347455502858
2020-11-13,1.1929750922493079
2020-11-16,1.1944446542687441
2020-11-17,1.1919781431502077
2020-11-18,1.1916680023896524
2020-11-19,1.1931889914383704
2020-11-20,1.1933654690956377
2020-11-23,1.1956319597827318
2020-11-24,1.1955202717782316
2020-11-25,1.1924145117487919
2020-11-26,1.192388137309524
2020-11-27,1.1960792432064793
2020-11-30,1.1922664320601994
2020-12-01,1.1953243887230645
2020-12-02,1.1947070221375644
2020-12-03,1.1953598408336172
2020-12-04,1.1955528386279788
2020-12-07,1.1922699798553824
2020-12-08,1.1910504516552467
2020-12-09,1.1874839629993792
2020-12-10,1.1872208811523883
2020-12-11,1.1857725233243948
2020-12-14,1.1857725233243948
2020-12-15,1.185706647073099
2020-12-16,1.185706647073099
2020-12-17,1.1870429114140613
2020-12-18,1.1867436029121066
2020-12-21,1.1910208387477643
2020-12-22,1.1865309768134409
2020-12-23,1.1877354955989352
2020-12-24,1.1872940018107665
2020-12-25,1.189261022519242
2020-12-28,1.1891451644835547
2020-12-29,1.1871488238563548
2020-12-30,1.190952641265239
2020-12-31,1.1973370445339357
2021-01-04,1.204362867227792
2021-01-05,1.2100997049857183
2021-01-06,1.212259382166554
2021-01-07,1.2142066498902149
2021-01-08,1.2134042986003661
2021-01-11,1.2062498211543449
2021-01-12,1.2162873874867604
2021-01-13,1.2129164249794167
2021-01-14,1.2136721635585186
2021-01-15,1.215899791914542
2021-01-18,1.2251903545606802
2021-01-19,1.2222215988141563
2021-01-20,1.2324010570656945
2021-01-21,1.2385060172418918
2021-01-22,1.2418855638428603
2021-01-25,1.2546545950487025
2021-01-26,1.2379547328645426
2021-01-27,1.2408365557555898
2021-01-28,1.215619445708175
2021-01-29,1.21157682258291
2021-02-01,1.2147918918803609
2021-02-02,1.2248705998735747
2021-02-03,1.2257615359685503
2021-02-04,1.2258211728480466
2021-02-05,1.2273318322013633
2021-02-08,1.2286831334252857
2021-02-09,1.2338802061852192
2021-02-10,1.246219118792946
2021-02-18,1.240396940303136
2021-02-19,1.2373561316655761
2021-02-22,1.2219295310034695
2021-02-23,1.217656245510904
2021-02-24,1.2025781838068423
2021-02-25,1.2037471559634758
2021-02-26,1.1967104085748925
2021-03-01,1.1990554015925463
2021-03-02,1.197934639566471
2021-03-03,1.1996585493167409
2021-03-04,1.1973525832084437
2021-03-05,1.197707165684398
2021-03-08,1.1944195534311546
2021-03-09,1.1941987466688957
2021-03-10,1.1942795304781055
2021-03-11,1.1941879436615075
2021-03-12,1.1941987156131646
2021-03-15,1.1941307968701251
2021-03-16,1.1938877286551368
2021-03-17,1.1938877286551368
2021-03-18,1.1938877286551368
2021-03-19,1.1938877286551368
2021-03-22,1.1938877286551368
2021-03-23,1.1938877286551368
2021-03-24,1.1938877286551368
2021-03-25,1.1938877286551368
2021-03-26,1.1938877286551368
2021-03-29,1.1938877286551368
2021-03-30,1.1938877286551368
2021-03-31,1.1938877286551368
2021-04-01,1.1938214015591004
2021-04-02,1.1951553030640774
2021-04-06,1.1962999354208108
2021-04-07,1.1969550399782618
2021-04-08,1.1988567638042855
2021-04-09,1.1993427013896798
2021-04-12,1.1975416593128105
2021-04-13,1.1961727988460698
2021-04-14,1.1993293109273344
2021-04-15,1.1979005990570732
2021-04-16,1.200369172005811
2021-04-19,1.2013100888732091
2021-04-20,1.1974973838577199
2021-04-21,1.1965695272965864
2021-04-22,1.19931551681927
2021-04-23,1.2008950312706579
2021-04-26,1.1982225104604083
2021-04-27,1.1991208929004875
2021-04-28,1.2023325577920836
2021-04-29,1.2028715196093798
2021-04-30,1.2029879978918652
2021-05-06,1.1971193501708166
2021-05-07,1.1925063700458134
2021-05-10,1.1939032007120685
2021-05-11,1.1933759221850082
2021-05-12,1.196988692812245
2021-05-13,1.1939577477599332
2021-05-14,1.2009976140792438
2021-05-17,1.2062386448002043
2021-05-18,1.206680679005332
2021-05-19,1.2077881251630056
2021-05-20,1.2091009758171367
2021-05-21,1.206260926561183
2021-05-24,1.2088425133397778
2021-05-25,1.2170988008741763
2021-05-26,1.217743931565556
2021-05-27,1.2194160207478841
2021-05-28,1.2180538471601268
2021-05-31,1.2231575870808538
2021-06-01,1.2242746795525425
2021-06-02,1.2177624813579075
2021-06-03,1.2150617697856543
2021-06-04,1.2183504822565345
2021-06-07,1.2175373334468582
2021-06-08,1.2151795371121545
2021-06-09,1.215001730332767
2021-06-10,1.2197211846593854
2021-06-11,1.2213718906100415
2021-06-15,1.2200673925949868
2021-06-16,1.2134976096963639
2021-06-17,1.2130580278521605
2021-06-18,1.215809630546793
2021-06-21,1.214548607500747
2021-06-22,1.2154205041961792
2021-06-23,1.2173566051060225
2021-06-24,1.2150895719041688
2021-06-25,1.219374882789952
2021-06-28,1.2225032177655641
2021-06-29,1.2208208518602637
2021-06-30,1.2254441629970183
2021-07-01,1.2217298832882584
2021-07-02,1.2143794272396602
2021-07-05,1.2176530460765855
2021-07-06,1.2155333885496973
2021-07-07,1.2223986379599503
2021-07-08,1.2228820947103358
2021-07-09,1.2231141807094288
2021-07-12,1.2309875991468762
2021-07-13,1.2321210915552014
2021-07-14,1.2300693567799728
2021-07-15,1.232141751720755
2021-07-16,1.226701379690892
2021-07-19,1.2247989257452785
2021-07-20,1.226441348278006
2021-07-21,1.2317467768594217
2021-07-22,1.2306196795886113
2021-07-23,1.227434471465102
2021-07-26,1.2230481003288558
2021-07-27,1.2229185294073797
2021-07-28,1.2214218032668975
2021-07-29,1.2217767911310344
2021-07-30,1.2196871215464855
2021-08-02,1.2219320342193696
2021-08-03,1.2215413764345402
2021-08-04,1.2223597641017923
2021-08-05,1.222170137827075
2021-08-06,1.2231450983075087
2021-08-09,1.2221515375921994
2021-08-10,1.2225168895736511
2021-08-11,1.2228859652349415
2021-08-12,1.2230594299290256
2021-08-13,1.2235464468858057
2021-08-16,1.2231855506810878
2021-08-17,1.2206493579295454
2021-08-18,1.220328334156165
2021-08-19,1.2182169780249876
2021-08-20,1.2176597038340988
2021-08-23,1.2195168954087576
2021-08-24,1.2228851675569747
2021-08-25,1.2238477152560316
2021-08-26,1.2231175118935775
2021-08-27,1.2242543488458395
2021-08-30,1.2261263889011114
2021-08-31,1.228417292919263
2021-09-01,1.226653018018046
2021-09-02,1.2288395339812934
2021-09-03,1.227838735889651
2021-09-06,1.230154734957412
2021-09-07,1.2329090619166971
2021-09-08,1.2319247229151855
2021-09-09,1.2318299950087959
2021-09-10,1.23125381784101
2021-09-13,1.2302865042256959
2021-09-14,1.2270841781582151
2021-09-15,1.2263670147954413
2021-09-16,1.2224304672903206
2021-09-17,1.22126202825175
2021-09-22,1.2224941884970342
2021-09-23,1.223245269607651
2021-09-24,1.2212312270034638
2021-09-27,1.2174346697297365
2021-09-28,1.2174346697297365
2021-09-29,1.217367034470307
2021-09-30,1.2172937269509085
2021-10-08,1.2166094150460334
2021-10-11,1.2146400632727945
2021-10-12,1.2120177323667805
2021-10-13,1.211903978085986
2021-10-14,1.2119053239263655
2021-10-15,1.211844724994913
2021-10-18,1.2116844926568244
2021-10-19,1.2124681575360479
2021-10-20,1.2120942236571557
2021-10-21,1.2096571371840996
2021-10-22,1.2121999721199241
2021-10-25,1.214751405414632
2021-10-26,1.210144534493419
2021-10-27,1.2021070080894714
2021-10-28,1.2003467838007504
2021-10-29,1.203271939635319
2021-11-01,1.2040610937334597
2021-11-02,1.2031656878713723
2021-11-03,1.2035620279682337
2021-11-04,1.2069884491660468
2021-11-05,1.208131438461358
2021-11-08,1.2087683957617736
2021-11-09,1.2100875453067346
2021-11-10,1.2088247927152167
2021-11-11,1.210575358158176
2021-11-12,1.2111956735516145
2021-11-15,1.2105088970771594
2021-11-16,1.2088984604216764
2021-11-17,1.2118725976298836
2021-11-18,1.210948630240471
2021-11-19,1.2158353868247636
2021-11-22,1.2193451648231668
2021-11-23,1.2145701204815276
2021-11-24,1.2140106312364356
2021-11-25,1.214389686190008
2021-11-26,1.21171878543515
2021-11-29,1.2119858265084302
2021-11-30,1.2123319377123078
2021-12-01,1.2122438021981081
2021-12-02,1.2078450753398586
2021-12-03,1.2095239673758014
2021-12-06,1.2056449604118475
2021-12-07,1.204629981257152
2021-12-08,1.206311808066701
2021-12-09,1.2084034278525502
2021-12-10,1.2081647986179649
2021-12-13,1.2087743307632217
2021-12-14,1.207860217514203
2021-12-15,1.2065954061158262
2021-12-16,1.2084293124839447
2021-12-17,1.2058662622940588
2021-12-20,1.2018261665049021
2021-12-21,1.2027760583893066
2021-12-22,1.203379557440916
2021-12-23,1.2041624200703605
2021-12-24,1.203336359221572
2021-12-27,1.2029826741712921
2021-12-28,1.2034853449878395
2021-12-29,1.2025098322417143
2021-12-30,1.2023538227250403
2021-12-31,1.2042683110065822
2022-01-04,1.2044486517446922
2022-01-05,1.1995357613064752
2022-01-06,1.1949411502757432
2022-01-07,1.194024652318239
2022-01-10,1.1941624661951058
2022-01-11,1.194345146021292
2022-01-12,1.1942609229023657
2022-01-13,1.1943351004779472
2022-01-14,1.1942568838898278
2022-01-17,1.1927489164180485
2022-01-18,1.1924358423251455
2022-01-19,1.1920757802666635
2022-01-20,1.1979248581424176
2022-01-21,1.1983442665735737
2022-01-24,1.1975402184138588
2022-01-25,1.1953238037687612
2022-01-26,1.194920004038425
2022-01-27,1.188929309294361
2022-01-28,1.1891284032518783
2022-02-07,1.1888890086281538
2022-02-08,1.189041356514486
2022-02-09,1.189104768678445
2022-02-10,1.1892236546543986
2022-02-11,1.1886233206343115
2022-02-14,1.1885387917903611
2022-02-15,1.1898570320101354
2022-02-16,1.1880797417245166
2022-02-17,1.1893101994096582
2022-02-18,1.190538483129885
2022-02-21,1.1902713940297578
2022-02-22,1.1918562265403778
2022-02-23,1.1908406438604164
2022-02-24,1.1937198333432955
2022-02-25,1.1921694501354017
2022-02-28,1.1914321918254331
2022-03-01,1.1914321918254331
2022-03-02,1.1931903243423625
2022-03-03,1.192824180398229
2022-03-04,1.1932825787988681
2022-03-07,1.1962987372484866
2022-03-08,1.1992552335314393
2022-03-09,1.2008366622035345
2022-03-10,1.1964857556872142
2022-03-11,1.196754388684442
2022-03-14,1.195972196375595
2022-03-15,1.1926146570737401
2022-03-16,1.1912007145086734
2022-03-17,1.191225483394504
2022-03-18,1.191401932350449
2022-03-21,1.1913503543508024
2022-03-22,1.19113454021783
2022-03-23,1.1944413684480315
2022-03-24,1.1932976019316175
2022-03-25,1.1957876182014198
2022-03-28,1.1951025918221587
2022-03-29,1.197813433940227
2022-03-30,1.199414514780932
2022-03-31,1.198366930203222
2022-04-01,1.1971090794146406
2022-04-06,1.1963898938374842
2022-04-07,1.1937968616153862
2022-04-08,1.194829016383436
2022-04-11,1.1911421245292844
2022-04-12,1.1911825297930565
2022-04-13,1.1911623454037588
2022-04-14,1.1914595281421563
2022-04-15,1.1918021376567558
2022-04-18,1.1924273053819634
2022-04-19,1.1914211167386408
2022-04-20,1.1897632625613654
2022-04-21,1.1914488415517637
2022-04-22,1.1917999563763826
2022-04-25,1.1908338411057924
2022-04-26,1.189672667989865
2022-04-27,1.1897626115618014
2022-04-28,1.189672642443516
2022-04-29,1.1914715149912696
2022-05-05,1.1910267715931886
2022-05-06,1.1907591264369102
2022-05-09,1.1912949041268857
2022-05-10,1.1903381698067996
2022-05-11,1.1895219610073013
2022-05-12,1.1908507492484819
2022-05-13,1.1895576133685992
2022-05-16,1.189542236146009
2022-05-17,1.1896287776131333
2022-05-18,1.1897202350269747
2022-05-19,1.1876117654097236
2022-05-20,1.1888928391824296
2022-05-23,1.1870954906869169
2022-05-24,1.1807490478639373
2022-05-25,1.1841967752465214
2022-05-26,1.1856590082726495
2022-05-27,1.1891915037864886
2022-05-30,1.1912973869066825
2022-05-31,1.194448348501761
2022-06-01,1.194069608546507
2022-06-02,1.1953122588955072
2022-06-06,1.209428558788515
2022-06-07,1.2136338087819878
2022-06-08,1.2265537957337331
2022-06-09,1.2186194905536338
2022-06-10,1.2289168302969868
2022-06-13,1.2176387019761288
2022-06-14,1.2169510346225367
2022-06-15,1.220897410937175
2022-06-16,1.2157964044478495
2022-06-17,1.2258393170017945
2022-06-20,1.229339137861479
2022-06-21,1.2318247867368615
2022-06-22,1.222858918162682
2022-06-23,1.2371536550339957
2022-06-24,1.2486463782996482
2022-06-27,1.2545803567436926
2022-06-28,1.2600829601394605
2022-06-29,1.247340557278271
2022-06-30,1.2505737409380147
2022-07-01,1.2466292275432116
2022-07-04,1.2548295316150184
2022-07-05,1.2545126566913327
2022-07-06,1.2449082858882952
2022-07-07,1.2494416087675704
2022-07-08,1.2486486609122105
2022-07-11,1.2328113837732582
2022-07-12,1.229280286018207
2022-07-13,1.229280286018207
2022-07-14,1.2292748202860224
2022-07-15,1.229227006253325
2022-07-18,1.2290441813853288
2022-07-19,1.2270452135279901
2022-07-20,1.2314653024472404
2022-07-21,1.2323414769504926
2022-07-22,1.2333937328701907
2022-07-25,1.2313600692605018
2022-07-26,1.2306938880430989
2022-07-27,1.2307033840059962
2022-07-28,1.2330907060741187
2022-07-29,1.2371687593250815
2022-08-01,1.23706544535939
2022-08-02,1.2372588770395017
2022-08-03,1.2372123805337367
2022-08-04,1.241250014803996
2022-08-05,1.2415850544438671
2022-08-08,1.2403874711065639
2022-08-09,1.2399156105985643
2022-08-10,1.2382805481678385
2022-08-11,1.2422812794757612
2022-08-12,1.2413479872145663
2022-08-15,1.2447823490948535
2022-08-16,1.2467470550822093
2022-08-17,1.2466234110645982
2022-08-18,1.2434950894379813
2022-08-19,1.2400298038379394
2022-08-22,1.2413799424623906
2022-08-23,1.2386896999057255
2022-08-24,1.2301952728218852
2022-08-25,1.2313144644794634
2022-08-26,1.2318671903937501
2022-08-29,1.2277778109854984
2022-08-30,1.2257029499874315
2022-08-31,1.2274763918639167
2022-09-01,1.22199941776126
2022-09-02,1.2212110417434314
2022-09-05,1.2187712558126462
2022-09-06,1.2186995561983245
2022-09-07,1.216883908140403
2022-09-08,1.213855633094147
2022-09-09,1.2137412334814317
2022-09-13,1.2136319046086168
2022-09-14,1.2134479515350216
2022-09-15,1.2134479515350216
2022-09-16,1.2134479515350216
2022-09-19,1.2134479515350216
2022-09-20,1.2134479515350216
2022-09-21,1.2134479515350216
2022-09-22,1.2134479515350216
2022-09-23,1.2134479515350216
2022-09-26,1.2134479515350216
2022-09-27,1.2134479515350216
2022-09-28,1.2134479515350216
2022-09-29,1.2134479515350216
2022-09-30,1.2133805377599363
2022-10-10,1.213229566482202
2022-10-11,1.2129268360831205
2022-10-12,1.2133074448954742
2022-10-13,1.2134064125029065
2022-10-14,1.2133114561930114
2022-10-17,1.212555386949193
2022-10-18,1.2129315350861778
2022-10-19,1.2125599839942058
2022-10-20,1.2119283326729706
2022-10-21,1.211932370477124
2022-10-24,1.211859652518131
2022-10-25,1.2119640755737264
2022-10-26,1.2118708419891284
2022-10-27,1.2115909690492361
2022-10-28,1.2117104195728854
2022-10-31,1.2112719982890414
2022-11-01,1.2115477395676166
2022-11-02,1.2095568446158322
2022-11-03,1.2052925654646889
2022-11-04,1.2051030419223256
2022-11-07,1.2057074083824089
2022-11-08,1.2054294153489016
2022-11-09,1.2070347149416798
2022-11-10,1.2018908672022892
2022-11-11,1.2055274859401692
2022-11-14,1.2027741496040552
2022-11-15,1.2153455168796543
2022-11-16,1.2131996211783236
2022-11-17,1.21191426638238
2022-11-18,1.2104732896903068
2022-11-21,1.204788028360893
2022-11-22,1.1933519156011259
2022-11-23,1.1992281073685527
2022-11-24,1.1996503621920571
2022-11-25,1.1995800539994348
2022-11-28,1.1925235167510568
2022-11-29,1.2035210828917906
2022-11-30,1.2055107778734258
2022-12-01,1.2118808421515137
2022-12-02,1.2098408701607581
2022-12-05,1.220380498164417
2022-12-06,1.2146346088642226
2022-12-07,1.2099327065747172
2022-12-08,1.2143476822536845
2022-12-09,1.2212372224101395
2022-12-12,1.2142125175982283
2022-12-13,1.215215363971912
2022-12-14,1.216919641234212
2022-12-15,1.2111318314715898
2022-12-16,1.2131338231327877
2022-12-19,1.2106582864912654
2022-12-20,1.2043528781290413
2022-12-21,1.2043528781290413
2022-12-22,1.2043528781290413
2022-12-23,1.2043528781290413
2022-12-26,1.2043528781290413
2022-12-27,1.2043528781290413
2022-12-28,1.2042190611425827
2022-12-29,1.2032905273667176
2022-12-30,1.2038170747684014
2023-01-03,1.2044031566628104
2023-01-04,1.208786238729805
2023-01-05,1.2133754494991293
2023-01-06,1.2110672726982945
2023-01-09,1.218080954565457
2023-01-10,1.2186778126911846
2023-01-11,1.2194024973610302
2023-01-12,1.2150388231881812
2023-01-13,1.2234705672204285
2023-01-16,1.2255702916823135
2023-01-17,1.2276937517472786
2023-01-18,1.2290271587997945
2023-01-19,1.2304874840626057
2023-01-20,1.240849277542956
2023-01-30,1.2470544387267173
2023-01-31,1.2342612022472952
2023-02-01,1.24791350786758
2023-02-02,1.25138269812397
2023-02-03,1.2425679709014024
2023-02-06,1.2288824927479742
2023-02-07,1.2286379055646544
2023-02-08,1.2301537681739787
2023-02-09,1.2306314238341183
2023-02-10,1.2281251413172196
2023-02-13,1.2287787282717997
2023-02-14,1.231088216549747
2023-02-15,1.2311425789778199
2023-02-16,1.2319276148088312
2023-02-17,1.2268803274457811
2023-02-20,1.2272545471753036
2023-02-21,1.22682912212104
2023-02-22,1.2242435767143978
2023-02-23,1.2242435767143978
2023-02-24,1.2242435767143978
2023-02-27,1.2242435767143978
2023-02-28,1.2242435767143978
2023-03-01,1.2242435767143978
2023-03-02,1.2242435767143978
2023-03-03,1.2242435767143978
2023-03-06,1.224175563182358
2023-03-07,1.2242844682793947
2023-03-08,1.2229414468189068
2023-03-09,1.2229612187511034
2023-03-10,1.223925259518269
2023-03-13,1.2247761486666902
2023-03-14,1.226581419190814
2023-03-15,1.2264605185878497
2023-03-16,1.227659008178677
2023-03-17,1.228446556989827
2023-03-20,1.2310478891851633
2023-03-21,1.2311375231374027
2023-03-22,1.2311162614713171
2023-03-23,1.2303525646989342
2023-03-24,1.2320641365624807
2023-03-27,1.2322848203580772
2023-03-28,1.2307121046217804
2023-03-29,1.2311871614222534
2023-03-30,1.233766129373447
2023-03-31,1.2380280634163043
2023-04-03,1.236682366621304
2023-04-04,1.2340110373297044
2023-04-06,1.2310200528067432
2023-04-07,1.2375460245695271
2023-04-10,1.2332633105947697
2023-04-11,1.2322629175937536
2023-04-12,1.2290119354945457
2023-04-13,1.2227007916012638
2023-04-14,1.2268082982479622
2023-04-17,1.228864206621803
2023-04-18,1.2267599415720862
2023-04-19,1.223056800229919
2023-04-20,1.2213922740716767
2023-04-21,1.2158479058850158
2023-04-24,1.2151681014231457
2023-04-25,1.2151797403306392
2023-04-26,1.214800190651564
2023-04-27,1.2151376763369
2023-04-28,1.2178128323834845
2023-05-04,1.2171135119207745
2023-05-05,1.21765419792082
2023-05-08,1.2181637881118732
2023-05-09,1.2185426101312207
2023-05-10,1.219364041349868
2023-05-11,1.2211457670956047
2023-05-12,1.2207553447444832
2023-05-15,1.2211039589987158
2023-05-16,1.221050165663139
2023-05-17,1.2213992785166825
2023-05-18,1.2231845390043674
2023-05-19,1.2263711620728155
2023-05-22,1.225698665482717
2023-05-23,1.2271372936257547
2023-05-24,1.2249911577028687
2023-05-25,1.2270554741129696
2023-05-26,1.2274623251876442
2023-05-29,1.2324173776368126
2023-05-30,1.2328414446554004
2023-05-31,1.2323820817137763
2023-06-01,1.2323607590394967
2023-06-02,1.2339042311553208
2023-06-05,1.2346967860916946
2023-06-06,1.2348783318523304
2023-06-07,1.2353998643726292
2023-06-08,1.2324658120120604
2023-06-09,1.2348043859714497
2023-06-12,1.2364526182566629
2023-06-13,1.2397689174104307
2023-06-14,1.2369225870923684
2023-06-15,1.2414898768073588
2023-06-16,1.248075013574031
2023-06-19,1.2428299929615418
2023-06-20,1.240620293011028
2023-06-21,1.2271674557193266
2023-06-26,1.2170388562532592
2023-06-27,1.2161155508022619
2023-06-28,1.2168444798837177
2023-06-29,1.2177696745405007
2023-06-30,1.2211932927684443
2023-07-03,1.2255472626374253
2023-07-04,1.2254210016162137
2023-07-05,1.2234939512015433
2023-07-06,1.2215528631811072
2023-07-07,1.2190946389117905
2023-07-10,1.2185578125814978
2023-07-11,1.2202935742939003
2023-07-12,1.219763893619843
2023-07-13,1.2247316817338005
2023-07-14,1.2250087953468762
2023-07-17,1.225515668666504
2023-07-18,1.2271302496700773
2023-07-19,1.231140184906264
2023-07-20,1.2283561895284694
2023-07-21,1.225826927831247
2023-07-24,1.2253011861046315
2023-07-25,1.2236962283696464
2023-07-26,1.22441220852978
2023-07-27,1.227109380494304
2023-07-28,1.2329025050054052
2023-07-31,1.2407721771236044
2023-08-01,1.2388963956395067
2023-08-02,1.2305153800142463
2023-08-03,1.23034681455799
2023-08-04,1.2329084848517318
2023-08-07,1.2302938897415043
2023-08-08,1.2245432050368488
2023-08-09,1.2232507483842987
2023-08-10,1.2246930010283186
2023-08-11,1.2143454781819596
2023-08-14,1.2143346803902315
2023-08-15,1.2142699145936864
2023-08-16,1.214352354398381
2023-08-17,1.214292410762132
2023-08-18,1.2143802420357246
2023-08-21,1.2144874137916144
2023-08-22,1.2143345155119447
2023-08-23,1.2142539356806545
2023-08-24,1.2146237539971014
2023-08-25,1.2140796902838364
2023-08-28,1.2139131002328511
2023-08-29,1.2140833354934504
2023-08-30,1.2145634715790306
2023-08-31,1.2149746175054856
2023-09-01,1.2146294914101206
2023-09-04,1.2154973609803268
2023-09-05,1.2153830828359222
2023-09-06,1.2155308254412294
2023-09-07,1.214480277201334
2023-09-08,1.2162603854611016
2023-09-11,1.2156620092452792
2023-09-12,1.2165700291104071
2023-09-13,1.2152762958486836
2023-09-14,1.216222972945001
2023-09-15,1.214897521849186
2023-09-18,1.214189637288346
2023-09-19,1.215294965602078
2023-09-20,1.2163139240956626
2023-09-21,1.2159242812262374
2023-09-22,1.2152992510554843
2023-09-25,1.215926304557472
2023-09-26,1.2158481756717328
2023-09-27,1.2137500405904476
2023-09-28,1.213682610032637
2023-10-09,1.213624627931859
2023-10-10,1.213624627931859
2023-10-11,1.213612487505681
2023-10-12,1.2136097894173907
2023-10-13,1.2136246159818258
2023-10-16,1.2136259637195275
2023-10-17,1.2136205680225856
2023-10-18,1.2136273068907766
2023-10-19,1.2136394363144694
2023-10-20,1.2135666166839632
2023-10-23,1.2128618178256778
2023-10-24,1.2129276783784102
2023-10-25,1.2123814630423002
2023-10-26,1.2132422559091849
2023-10-27,1.2135532652508225
2023-10-30,1.2137186251321193
2023-10-31,1.2141464391590349
2023-11-01,1.213632303666741
2023-11-02,1.2140415805292142
2023-11-03,1.2139550144381754
2023-11-06,1.2131525735955873
2023-11-07,1.2116919517160294
2023-11-08,1.2114682999103479
2023-11-09,1.2111771386361145
2023-11-10,1.2104052781674794
2023-11-13,1.2106772102972883
2023-11-14,1.2107106114986002
2023-11-15,1.214657296904724
2023-11-16,1.2101267013675485
2023-11-17,1.211554780058114
2023-11-20,1.2109062582443033
2023-11-21,1.2111482973849772
2023-11-22,1.205996084973027
2023-11-23,1.206694902594625
2023-11-24,1.206743796192433
2023-11-27,1.2060333796396383
2023-11-28,1.206373091658788
2023-11-29,1.2062993712641283
2023-11-30,1.206183172962959
2023-12-01,1.2056017334752458
2023-12-04,1.2057680242837392
2023-12-05,1.2024286332088632
2023-12-06,1.2023513716109018
2023-12-07,1.2025058368845856
2023-12-08,1.2027372968292693
2023-12-11,1.2017349554348593
2023-12-12,1.2010585663764983
2023-12-13,1.2024639056442237
2023-12-14,1.2037976837239055
2023-12-15,1.202692026750815
2023-12-18,1.203806536269471
2023-12-19,1.2045721056057053
2023-12-20,1.2052556637234995
2023-12-21,1.2035417151344037
2023-12-22,1.2043868052058777
2023-12-25,1.2046054842647271
2023-12-26,1.2055270440064738
2023-12-27,1.2064780064856868
2023-12-28,1.2062665487553366
2023-12-29,1.2056723014025035
2024-01-02,1.2057643763914858
2024-01-03,1.2034835180414498
2024-01-04,1.2032060104559141
2024-01-05,1.2036557031578003
2024-01-08,1.203232676376105
2024-01-09,1.2032521698256033
2024-01-10,1.2026383571114294
2024-01-11,1.2025922312469477
2024-01-12,1.2021350421446992
2024-01-15,1.2028873488434462
2024-01-16,1.201563487606099
2024-01-17,1.200265222873019
2024-01-18,1.2000445757017812
2024-01-19,1.2030184139508109
2024-01-22,1.2071526268926387
2024-01-23,1.2061221208925097
2024-01-24,1.2068210988248043
2024-01-25,1.2061694634590954
2024-01-26,1.2052068035779242
2024-01-29,1.2064199982785204
2024-01-30,1.2088699988540625
2024-01-31,1.2059903129907743
2024-02-01,1.2045969286190965
2024-02-02,1.2078305136866039
2024-02-05,1.2075505498190264
2024-02-06,1.2073297834266998
2024-02-07,1.206183518713387
2024-02-08,1.2106467935831944
2024-02-19,1.2100799847432089
2024-02-20,1.2100261922334172
2024-02-21,1.2125987838731107
2024-02-22,1.2163320030264886
2024-02-23,1.2204656783575787
2024-02-26,1.2141838820514363
2024-02-27,1.2222665231763286
2024-02-28,1.211367746961492
2024-02-29,1.222679636028975
2024-03-01,1.227626066116057
2024-03-04,1.2291618330338712
2024-03-05,1.223818401739177
2024-03-06,1.225390602703984
2024-03-07,1.2199282724560867
2024-03-08,1.2268015752479193
2024-03-11,1.2367506241721162
2024-03-12,1.2402692455457307
2024-03-13,1.2397874121975263
2024-03-14,1.2357078566452395
2024-03-15,1.2343881767678713
2024-03-18,1.242250350758836
2024-03-19,1.2344653199454876
2024-03-20,1.2366370359498318
2024-03-21,1.2429563065813192
2024-03-22,1.2305313061954317
2024-03-25,1.2243956269811567
2024-03-26,1.2288959684022773
2024-03-27,1.225560813271875
2024-03-28,1.2284202659460925
2024-03-29,1.2310313845472007
2024-04-01,1.2343790107587713
2024-04-02,1.2338112356322315
2024-04-03,1.2332427550182279
2024-04-08,1.2362991924253388
2024-04-09,1.2372004996452142
2024-04-10,1.2416529168872765
2024-04-11,1.2406724009269876
2024-04-12,1.2395983340965775
2024-04-15,1.2346385834700724
2024-04-16,1.229495182681251
2024-04-17,1.2296539778795275
2024-04-18,1.229362038899661
2024-04-19,1.2301139286653404
2024-04-22,1.2275471210088704
2024-04-23,1.2242349389785303
2024-04-24,1.2286012100459693
2024-04-25,1.228234116046275
2024-04-26,1.2359071192197528
2024-04-29,1.234606974640337
2024-04-30,1.2301071599694442
2024-05-06,1.2519496605856906
2024-05-07,1.2484108063536095
2024-05-08,1.2413816925578842
2024-05-09,1.2518282715172144
2024-05-10,1.2538100481821177
2024-05-13,1.2555543657833488
2024-05-14,1.257136192238861
2024-05-15,1.2533342886153123
2024-05-16,1.2563653529226935
2024-05-17,1.2635444852417712
2024-05-20,1.2655040345845188
2024-05-21,1.2563291738087525
2024-05-22,1.2589890954976937
2024-05-23,1.2490209004056847
2024-05-24,1.236965719156463
2024-05-27,1.2407510122132017
2024-05-28,1.2415355651887954
2024-05-29,1.236539536671538
2024-05-30,1.2350918809886875
2024-05-31,1.2343946415932927
2024-06-03,1.2345364306167148
2024-06-04,1.2345683537252894
2024-06-05,1.234607251963383
2024-06-06,1.234512713995644
2024-06-07,1.234660013293077
2024-06-11,1.2347583747415456
2024-06-12,1.2360182946889688
2024-06-13,1.238761022594281
2024-06-14,1.2386861314626425
2024-06-17,1.239318370214533
2024-06-18,1.2411701488588307
2024-06-19,1.2413860314186138
2024-06-20,1.2424442813308445
2024-06-21,1.2403109128908982
2024-06-24,1.2398233856640375
2024-06-25,1.2384336298327938
2024-06-26,1.2411321402911524
2024-06-27,1.2411782691862419
2024-06-28,1.2431689017461007
2024-07-01,1.2427545265568805
2024-07-02,1.2429713030536822
2024-07-03,1.245711989622705
2024-07-04,1.2464683935619167
2024-07-05,1.2481039247256918
2024-07-08,1.2499207155942866
2024-07-09,1.2515211049808426
2024-07-10,1.2497636005082313
2024-07-11,1.2509290622952283
2024-07-12,1.2460113325085396
2024-07-15,1.245667444790931
2024-07-16,1.2435431401754178
2024-07-17,1.2436859853674211
2024-07-18,1.2413218171712412
2024-07-19,1.231489780914967
2024-07-22,1.234809768082812
2024-07-23,1.2281739666350329
2024-07-24,1.2273662811329735
2024-07-25,1.223106265008691
2024-07-26,1.2231640119149125
2024-07-29,1.2231414889012049
2024-07-30,1.223161059610707
2024-07-31,1.2232559654002924
2024-08-01,1.2234769488881811
2024-08-02,1.223673203577383
2024-08-05,1.2237229356997876
2024-08-06,1.2235287734878244
2024-08-07,1.2237152011623031
2024-08-08,1.223598112446051
2024-08-09,1.223349484772932
2024-08-12,1.2226658171921871
2024-08-13,1.2226671750380844
2024-08-14,1.2226644569554275
2024-08-15,1.2225897418624598
2024-08-16,1.2225897418624598
2024-08-19,1.222521820210134
2024-08-20,1.222521820210134
2024-08-21,1.2231087456366592
2024-08-22,1.222715684227258
2024-08-23,1.2209009531724981
2024-08-26,1.2219606694458773
2024-08-27,1.220574950218794
2024-08-28,1.219621385174081
2024-08-29,1.2162771146737548
2024-08-30,1.2179591190576642
2024-09-02,1.2147309206550363
2024-09-03,1.2147816740976871
2024-09-04,1.2131725488637997
2024-09-05,1.21294924035746
2024-09-06,1.2129252467057183
2024-09-09,1.2129794325604097
2024-09-10,1.2130877239472022
2024-09-11,1.2132209589567295
2024-09-12,1.2127522832740207
2024-09-13,1.2149029101722346
2024-09-18,1.2148435577906809
2024-09-19,1.214333267758607
2024-09-20,1.2164737059997448
2024-09-23,1.2183955601042242
2024-09-24,1.2223142960892135
2024-09-25,1.229031208084447
2024-09-26,1.2618168586456122
2024-09-27,1.3052961210197034
2024-09-30,1.376180302267107
2024-10-08,1.4127033025881732
2024-10-09,1.359166168081784
2024-10-10,1.368125868748842
2024-10-11,1.3497341773957348
2024-10-14,1.364463787131323
2024-10-15,1.3438487548666427
2024-10-16,1.3432257301052497
2024-10-17,1.3398675452275495
2024-10-18,1.36317596685705
2024-10-21,1.3623626199820984
2024-10-22,1.3649586352743546
2024-10-23,1.3717383168836583
2024-10-24,1.3594831143860882
2024-10-25,1.3669333226914906
2024-10-28,1.3725774364702783
2024-10-29,1.3700412524126726
2024-10-30,1.3669402372858288
2024-10-31,1.3647717210702794
2024-11-01,1.3597308612026295
2024-11-04,1.3635051089590717
2024-11-05,1.3764477415190521
2024-11-06,1.3709982306602084
2024-11-07,1.3883158530824498
2024-11-08,1.3838489778805902
2024-11-11,1.3876813867463593
2024-11-12,1.376879717925475
2024-11-13,1.377780085950412
2024-11-14,1.3669514561562908
2024-11-15,1.354483908631498
2024-11-18,1.3476415574130245
2024-11-19,1.3522264255278327
2024-11-20,1.354682380580516
2024-11-21,1.3538529671489372
2024-11-22,1.3458445397586267
2024-11-25,1.3474162437660997
2024-11-26,1.3473860079563804
2024-11-27,1.3476335478564125
2024-11-28,1.3468623071424513
2024-11-29,1.3470418590811168
2024-12-02,1.3481471761245463
2024-12-03,1.3508406736453114
2024-12-04,1.3516391380665962
2024-12-05,1.3530053437526424
2024-12-06,1.3524863182989355
2024-12-09,1.3549645202460325
2024-12-10,1.3540623139183618
2024-12-11,1.3501182452181653
2024-12-12,1.3589176179693834
2024-12-13,1.349965809161382
2024-12-16,1.344213933208762
2024-12-17,1.3424679600581482
2024-12-18,1.3456929878592583
2024-12-19,1.3413017011361246
2024-12-20,1.337896820769302
2024-12-23,1.3422624941327184
2024-12-24,1.345260887432554
2024-12-25,1.3463102923068433
2024-12-26,1.3470664080248052
2024-12-27,1.3449760460848592
2024-12-30,1.3425813531260067
2024-12-31,1.3393966341054353
2025-01-02,1.338991480957785
2025-01-03,1.3384773491269655
2025-01-06,1.341756366716084
2025-01-07,1.3406219597490256
2025-01-08,1.3391417073143685
2025-01-09,1.338205655201718
2025-01-10,1.3385406485075535
2025-01-13,1.3352098236116863
2025-01-14,1.334000280663966
2025-01-15,1.3350033483923607
2025-01-16,1.3354931517869546
2025-01-17,1.335810340865874
2025-01-20,1.335565544510053
2025-01-21,1.3355967769834884
2025-01-22,1.3369735762125923
2025-01-23,1.336929863666924
2025-01-24,1.3374703351044386
2025-01-27,1.3368675071595506
2025-02-05,1.3510896477630512
2025-02-06,1.35359810431608
2025-02-07,1.3616769046033719
2025-02-10,1.3739855370814646
2025-02-11,1.3699580943910503
2025-02-12,1.381732233874264
2025-02-13,1.3860675663579918
2025-02-14,1.3982396596742217
2025-02-17,1.3998000349295847
2025-02-18,1.3983806109187191
2025-02-19,1.4066600881495281
2025-02-20,1.4005097330845653
2025-02-21,1.4205791606526035
2025-02-24,1.4204676180023261
2025-02-25,1.4057217832033302
2025-02-26,1.423457677590107
2025-02-27,1.4194980502452368
2025-02-28,1.3922014180322142
2025-03-03,1.393840525371683
2025-03-04,1.3969232668560214
2025-03-05,1.4034394073223988
2025-03-06,1.4194824173053853
2025-03-07,1.417858172052165
2025-03-10,1.4118002069662179
2025-03-11,1.4093753138324443
2025-03-12,1.4076991909601078
2025-03-13,1.4037938882291134
2025-03-14,1.41643639668203
2025-03-17,1.4175040946729627
2025-03-18,1.4280717563117475
2025-03-19,1.429379969288948
2025-03-20,1.4184367031262204
2025-03-21,1.407403534659041
2025-03-24,1.4089508585557844
2025-03-25,1.4028981650708068
2025-03-26,1.4030529036627093
2025-03-27,1.4051926608474083
2025-03-28,1.4059798324095478
2025-03-31,1.4055239518900877
2025-04-01,1.406467154101356
2025-04-02,1.4058802786795004
2025-04-03,1.4071948644681513
2025-04-07,1.4028529762452668
2025-04-08,1.4038173407843098
2025-04-09,1.405862487208285
2025-04-10,1.4093810150692412
2025-04-11,1.411806474899469
2025-04-14,1.4128680883083065
2025-04-15,1.4128099178419957
2025-04-16,1.4167497099853352
2025-04-17,1.417971209382516
2025-04-18,1.4182508521248451
2025-04-21,1.4209183129495397
2025-04-22,1.426166019668404
2025-04-23,1.4165929769861425
2025-04-24,1.4183151555993263
2025-04-25,1.4172137887288723
2025-04-28,1.415883884399751
2025-04-29,1.4169995322641207
2025-04-30,1.4160008498028256
2025-05-06,1.4188767996487308
2025-05-07,1.4206787812976247
2025-05-08,1.4205009829178092
2025-05-09,1.4172888441006188
2025-05-12,1.4262722260641723
2025-05-13,1.4243898012521574
2025-05-14,1.440424534082886
2025-05-15,1.4305569134093643
2025-05-16,1.4260873189893017
2025-05-19,1.4244034447851714
2025-05-20,1.4324664893312373
2025-05-21,1.4330885669204747
2025-05-22,1.4251880033723225
2025-05-23,1.419813934118636
2025-05-26,1.4148709455710407
2025-05-27,1.4162120288705027
2025-05-28,1.4172293735197279
2025-05-29,1.4193374098734874
2025-05-30,1.4160607858876573
2025-06-03,1.4166672262025979
2025-06-04,1.4179766938590497
2025-06-05,1.4175763814545035
2025-06-06,1.4170964088523108
2025-06-09,1.4190568417840959
2025-06-10,1.4181556477412713
2025-06-11,1.421456729602203
2025-06-12,1.4193842298644994
2025-06-13,1.4160697328726972
2025-06-16,1.4175153072481872
2025-06-17,1.4157277192039854
2025-06-18,1.4140282900277121
2025-06-19,1.4086697826803525
2025-06-20,1.408086097783813
2025-06-23,1.4086669168241646
2025-06-24,1.406353305275243
2025-06-25,1.4132455853026302
2025-06-26,1.4106318676301102
2025-06-27,1.4126373865965598
2025-06-30,1.4174377932278692
2025-07-01,1.4169579772758423
2025-07-02,1.4151679716983097
2025-07-03,1.4183485192465692
2025-07-04,1.4181207619687755
2025-07-07,1.4152167801277482
2025-07-08,1.423507194816776
2025-07-09,1.4211183146993145
2025-07-10,1.4249656679348306
2025-07-11,1.4287493941286236
2025-07-14,1.426282320505265
2025-07-15,1.432706152231218
2025-07-16,1.4321775128379812
2025-07-17,1.4377840627027838
2025-07-18,1.443875323881126
2025-07-21,1.4511033481541262
2025-07-22,1.4556953126423409
2025-07-23,1.463954864748928
2025-07-24,1.4692767465983863
2025-07-25,1.4629919818854873
2025-07-28,1.4700949449616003
2025-07-29,1.4720130266511426
2025-07-30,1.4648098816411383
2025-07-31,1.4560315618592583
2025-08-01,1.4519056584285859
2025-08-04,1.4521037796209972
2025-08-05,1.4560183440856787
2025-08-06,1.460207483938832
2025-08-07,1.4595927395414023
2025-08-08,1.4545598167450386
2025-08-11,1.4602902740846873
2025-08-12,1.463897136393031
2025-08-13,1.4784458722285028
2025-08-14,1.4735156381082133
2025-08-15,1.4818811937801795
2025-08-18,1.490419369906974
2025-08-19,1.4869555150152471
2025-08-20,1.4900048199400218
2025-08-21,1.4863409255500943
2025-08-22,1.5002747464163941
2025-08-25,1.521575253621795
2025-08-26,1.5158691368747588
2025-08-27,1.5046238657214421
2025-08-28,1.513740092391645
2025-08-29,1.5197277223085157
2025-09-01,1.5317975029701267
2025-09-02,1.5229666438078728
2025-09-03,1.5207836676452295
2025-09-04,1.5046943422367862
2025-09-05,1.5234631135299739
2025-09-08,1.52685207431276
2025-09-09,1.5264047442326825
2025-09-10,1.5307756239514154
2025-09-11,1.5432204732055088
2025-09-12,1.5452102247845143
2025-09-15,1.5481480878976224
2025-09-16,1.5561958834478864
2025-09-17,1.5681167406174126
2025-09-18,1.5545280522018556
2025-09-19,1.5553240902105376
2025-09-22,1.561766664693324
2025-09-23,1.5629526037783799
2025-09-24,1.5805795146993795
2025-09-25,1.5835180567972265
2025-09-26,1.5714611337443922
2025-09-29,1.5911102188546178
2025-09-30,1.5995003221728634
2025-10-09,1.61578089355831
2025-10-10,1.5912183605618868
2025-10-13,1.580410988578237
2025-10-14,1.5753921102429371
2025-10-15,1.5853259691802257
2025-10-16,1.5868366726157566
2025-10-17,1.5813918542434535
2025-10-20,1.580775700149033
2025-10-21,1.586335691423568
2025-10-22,1.5800763739306316
2025-10-23,1.5779211334416616
2025-10-24,1.578864005669773
2025-10-27,1.582981711960095
2025-10-28,1.5766536278905214
2025-10-29,1.5820587780071655
2025-10-30,1.5764870535714077
2025-10-31,1.570158476003183
2025-11-03,1.5703392677102677
2025-11-04,1.562540179054774
2025-11-05,1.5618646282148438
2025-11-06,1.570633469322412
2025-11-07,1.567318420336548
2025-11-10,1.5685268898081917
2025-11-11,1.5655052413906612
2025-11-12,1.568396816617904
2025-11-13,1.5711512334743194
2025-11-14,1.5609396458286846
2025-11-17,1.5570989653284326
2025-11-18,1.5537686172204885
2025-11-19,1.5537180131580834
2025-11-20,1.553805912583099
2025-11-21,1.5537601367554292
2025-11-24,1.5537793982005963
2025-11-25,1.553783009363243
2025-11-26,1.5535137259241043
2025-11-27,1.5535137259241043
2025-11-28,1.5535137259241043
2025-12-01,1.5535137259241043
2025-12-02,1.5535137259241043
2025-12-03,1.5535137259241043
2025-12-04,1.5535137259241043
2025-12-05,1.5535137259241043
2025-12-08,1.5535137259241043
2025-12-09,1.5534274196059974
2025-12-10,1.5536636276369744
2025-12-11,1.5510743254571102
2025-12-12,1.552470717461661
2025-12-15,1.5517827428393764
2025-12-16,1.5464176979304045
2025-12-17,1.553687834386471
2025-12-18,1.5499812945950755
2025-12-19,1.5507122659533856
2025-12-22,1.559941632595382
2025-12-23,1.5631712314803734
2025-12-24,1.5673539043583489
2025-12-25,1.568187377310979
2025-12-26,1.5716433806116046
2025-12-29,1.5674255310557623
2025-12-30,1.5660148788937829
2025-12-31,1.5619730504545077
2026-01-05,1.5742679959435075
2026-01-06,1.581290247122164
2026-01-07,1.5800280163049738
2026-01-08,1.5759416694509751
2026-01-09,1.5829539792495377
2026-01-12,1.5926880548052407
2026-01-13,1.5877498666428178
2026-01-14,1.595880096454559
2026-01-15,1.5915574580580893
2026-01-16,1.5882096115867494
2026-01-19,1.5878201537284888
2026-01-20,1.5827103720891482
2026-01-21,1.5909665487850013
2026-01-22,1.5917498978671611
2026-01-23,1.6042434857716306
2026-01-26,1.6049634096797836
2026-01-27,1.6113196387733169
2026-01-28,1.625665878416098
2026-01-29,1.6337129966032717
2026-01-30,1.610282144206646
2026-02-02,1.5727395815586487
2026-02-03,1.5743660903402936
2026-02-04,1.5746587648493398
2026-02-05,1.5740358238688033
2026-02-06,1.5724339504651608
2026-02-09,1.5725382694373302
2026-02-10,1.5725346291002924
2026-02-11,1.572612222060751
2026-02-12,1.5725951455761666
2026-02-13,1.5727059696240249
2026-02-24,1.57264845353463
2026-02-25,1.5724169982558664
2026-02-26,1.5718391582448352
2026-02-27,1.5700349151251622
2026-03-02,1.569110693118925
2026-03-03,1.5579695526871415
2026-03-04,1.556898615642955
2026-03-05,1.5568313146518624
2026-03-06,1.5568744622365556
2026-03-09,1.5566596481159982
2026-03-10,1.5565793062313193
2026-03-11,1.5565673010051015
2026-03-12,1.5565720991248513
2026-03-13,1.5566116826365646
2026-03-16,1.5563259956991102
2026-03-17,1.5524033509374247
2026-03-18,1.5558056295403861
2026-03-19,1.5539965896713666
2026-03-20,1.5559578356252461
2026-03-23,1.5501276784259819
2026-03-24,1.5505932270527865
2026-03-25,1.5543551341963728
2026-03-26,1.5520294722901473
2026-03-27,1.5535110973351174
2026-03-30,1.5521054023928393
2026-03-31,1.5477329928178982
2026-04-01,1.5475912680101724
2026-04-02,1.5476210374732053
2026-04-03,1.5476136378119643
2026-04-07,1.5475727497759753
2026-04-08,1.5473906894549776
2026-04-09,1.54479858355689
2026-04-10,1.5451004558203958
2026-04-13,1.5456626699899356
2026-04-14,1.5522432895264087
2026-04-15,1.5536704129240513
2026-04-16,1.5647403595734315
2026-04-17,1.5647666957286277
2026-04-20,1.5682654729210042
2026-04-21,1.5681484947918
2026-04-22,1.57063975138387
2026-04-23,1.5643950568009526
2026-04-24,1.5600172300753905
2026-04-27,1.560678422649179
2026-04-28,1.5532783168475912
2026-04-29,1.5623100939509789
2026-04-30,1.5619495472991898
2026-05-06,1.5774302097227857
2026-05-07,1.5868834320827323
2026-05-08,1.584129501635216
2026-05-11,1.599497026449821
2026-05-12,1.5954840929432679
2026-05-13,1.605742321997934
2026-05-14,1.5960376754782002
2026-05-15,1.5887237858717798
2026-05-18,1.5813063787098587
2026-05-19,1.5817917653230336
2026-05-20,1.5841602656929454
2026-05-21,1.577136027379799
2026-05-22,1.5853256154615092
2026-05-25,1.5961417456784142
2026-05-26,1.5934642042100415
2026-05-27,1.5967038125064454
2026-05-28,1.59958221176123
2026-05-29,1.6007774372732324
2026-06-01,1.6040694884748266
2026-06-02,1.6072063367693605
2026-06-03,1.6070843358092666
2026-06-04,1.6005927093388008
2026-06-05,1.5924666718535665
2026-06-08,1.5782015167650338
2026-06-09,1.5781242784031062
2026-06-10,1.5779557861398432
2026-06-11,1.5779557861398432
2026-06-12,1.5779557861398432
2026-06-15,1.5779557861398432
2026-06-16,1.5779557861398432
2026-06-17,1.577868121929502
2026-06-18,1.5813131815853103
2026-06-22,1.5925063295748123
2026-06-23,1.5775717368797892
2026-06-24,1.5835253693832008
2026-06-25,1.5935162238270102
2026-06-26,1.5778109744996822
2026-06-29,1.5824354210540688
2026-06-30,1.5933487334506617
2026-07-01,1.5888461520805306
2026-07-02,1.5690720266798093
2026-07-03,1.5700000451049954
2026-07-06,1.5682488252957718
2026-07-07,1.5682550264289707
2026-07-08,1.5683003768758712
2026-07-09,1.5682651006037391
2026-07-10,1.5682869747202113
2026-07-13,1.5682820733661895
2026-07-14,1.5682973932022397
2026-07-15,1.56815000730464
2026-07-16,1.5738060939306464
2026-07-17,1.5629174995394088
2026-07-20,1.573467045834811
2026-07-21,1.5729317841967663
2026-07-22,1.5632108967141127
2026-07-23,1.5654127656685115
2026-07-24,1.5625392306146433
2026-07-27,1.5651972122196576
2026-07-28,1.5656298859175972
2026-07-29,1.5690526844016388
2026-07-30,1.5696273511587955
2026-07-31,1.5686822655810957
2026-08-03,1.5699967970058855
2026-08-04,1.5686794714917838
2026-08-05,1.5764082431521174
2026-08-06,1.5703559911142213
2026-08-07,1.574719250135478
2026-08-10,1.5803486251571233
2026-08-11,1.5734964794298958
2026-08-12,1.5706674020681521
2026-08-13,1.5663937656534646
2026-08-14,1.5674985949582205
2026-08-17,1.5704075374176554
2026-08-18,1.5658688275506107
2026-08-19,1.5383459779378679
2026-08-20,1.5432581191683938
2026-08-21,1.546133900389912
2026-08-24,1.5494132774701712
2026-08-25,1.548853426375209
2026-08-26,1.5484522388443585
2026-08-27,1.5470683716757252
2026-08-28,1.5474949784422845
2026-08-31,1.5413355842356724
2026-09-01,1.5409981978253058
2026-09-02,1.536887700484043
2026-09-03,1.5368825756069047
2026-09-04,1.5368825756069047
2026-09-07,1.536872325579312
2026-09-08,1.536874032490419
2026-09-09,1.5368757393863526
2026-09-10,1.5368791531478747
2026-09-11,1.5368876873999648
2026-09-14,1.5368757293533866
2026-09-15,1.5368808499956392
2026-09-16,1.5368723082301592
2026-09-17,1.536874015141247
2026-09-18,1.5367886332515168
2026-09-21,1.5377513002761858
2026-09-22,1.5401345159416802
2026-09-23,1.5414111121958083
2026-09-24,1.5398557278050193
2026-09-28,1.5398557278050193
