date,equity
2018-10-16,1.0
2018-10-17,1.0
2018-10-18,1.0
2018-10-19,1.0
2018-10-22,1.0
2018-10-23,1.0
2018-10-24,1.0
2018-10-25,1.0
2018-10-26,1.0
2018-10-29,1.0
2018-10-30,1.0
2018-10-31,1.0
2018-11-01,1.0
2018-11-02,1.0
2018-11-05,1.0
2018-11-06,1.0
2018-11-07,1.0
2018-11-08,1.0
2018-11-09,1.0
2018-11-12,1.0
2018-11-13,0.9998699819678332
2018-11-14,0.9990529524113035
2018-11-15,1.0016006031654914
2018-11-16,1.0037671021247396
2018-11-19,1.0067892322503602
2018-11-20,0.9968007807430488
2018-11-21,0.9976418488375087
2018-11-22,0.9973472793742019
2018-11-23,0.9868340451264618
2018-11-26,0.9878111059226224
2018-11-27,0.9873676036293979
2018-11-28,0.991521476189604
2018-11-29,0.9888341713883122
2018-11-30,0.9894643679522147
2018-12-03,0.9942139020073221
2018-12-04,0.993688900873108
2018-12-05,0.9972423358055281
2018-12-06,0.9854307990056118
2018-12-07,0.9857393856504972
2018-12-10,0.9825383140884727
2018-12-11,0.9834993606598554
2018-12-12,0.9847387191771675
2018-12-13,0.9912180711589311
2018-12-14,0.984060338900729
2018-12-17,0.9830576848059642
2018-12-18,0.9810529172190088
2018-12-19,0.9785129970957299
2018-12-20,0.9752956010911383
2018-12-21,0.9742799678986401
2018-12-24,0.9736416563297084
2018-12-25,0.9734340462595504
2018-12-26,0.9735129834281382
2018-12-27,0.9738459181915395
2018-12-28,0.974536343067875
2019-01-02,0.973023495481406
2019-01-03,0.9729302905930988
2019-01-04,0.9730348255915823
2019-01-07,0.9734978852624574
2019-01-08,0.9733907285417116
2019-01-09,0.9737116600243594
2019-01-10,0.9722444422448349
2019-01-11,0.9722381147303355
2019-01-14,0.9712679549274904
2019-01-15,0.9748738361903793
2019-01-16,0.9736254017286721
2019-01-17,0.9712913922560389
2019-01-18,0.980130753402944
2019-01-21,0.9832470865982372
2019-01-22,0.9745694638237282
2019-01-23,0.9769170310812368
2019-01-24,0.9803722372736368
2019-01-25,0.984783855659618
2019-01-28,0.985101528748009
2019-01-29,0.9901828701798824
2019-01-30,0.9870024732052859
2019-01-31,0.9945091954895787
2019-02-01,1.0012368269310994
2019-02-11,1.0124120051625007
2019-02-12,1.0170529225163751
2019-02-13,1.0292054712489391
2019-02-14,1.0328939180580958
2019-02-15,1.0186303655204185
2019-02-18,1.0447624655008887
2019-02-19,1.041738790321728
2019-02-20,1.0497011070435738
2019-02-21,1.0520336902011802
2019-02-22,1.069751825227817
2019-02-25,1.1111707079481001
2019-02-26,1.1036904184465404
2019-02-27,1.0976834243596454
2019-02-28,1.0994091852372818
2019-03-01,1.1189508669592871
2019-03-04,1.1336863205034469
2019-03-05,1.1410875309232484
2019-03-06,1.144151263254045
2019-03-07,1.1253405007150687
2019-03-08,1.093358542605248
2019-03-11,1.1097819690523867
2019-03-12,1.11733538994597
2019-03-13,1.1075103062671907
2019-03-14,1.1037009806823612
2019-03-15,1.1139320217089554
2019-03-18,1.1323677928300169
2019-03-19,1.1281560609792813
2019-03-20,1.126812747505021
2019-03-21,1.1250470998990016
2019-03-22,1.127107956551181
2019-03-25,1.1143061729960628
2019-03-26,1.1083802616981908
2019-03-27,1.1151348492532809
2019-03-28,1.1147645551169714
2019-03-29,1.1334961017519183
2019-04-01,1.1469063004936708
2019-04-02,1.143358261152506
2019-04-03,1.1538609770976158
2019-04-04,1.1623872425106057
2019-04-08,1.1593847347580717
2019-04-09,1.1634392850240902
2019-04-10,1.1675798573774443
2019-04-11,1.1457697982936683
2019-04-12,1.1448209850818662
2019-04-15,1.1425229577160863
2019-04-16,1.1594861136993035
2019-04-17,1.1630002106164856
2019-04-18,1.1600411502077315
2019-04-19,1.1673498805571791
2019-04-22,1.155868569933033
2019-04-23,1.153944478536803
2019-04-24,1.154322962927425
2019-04-25,1.1464237556944368
2019-04-26,1.1396043826159987
2019-04-29,1.1436127313237656
2019-04-30,1.143143849378596
2019-05-06,1.1321058340869106
2019-05-07,1.134275448578345
2019-05-08,1.1321748939193352
2019-05-09,1.1322489404906515
2019-05-10,1.1358238579732247
2019-05-13,1.135943948565667
2019-05-14,1.1354476921661396
2019-05-15,1.137480666989805
2019-05-16,1.137700374936957
2019-05-17,1.1353543421961712
2019-05-20,1.1317351981782022
2019-05-21,1.1336322572890147
2019-05-22,1.1331618711332287
2019-05-23,1.1298283699416003
2019-05-24,1.1287233272155088
2019-05-27,1.1303007873827686
2019-05-28,1.1318552784545455
2019-05-29,1.1308583852738523
2019-05-30,1.1308378326735935
2019-05-31,1.1313684635062105
2019-06-03,1.1307165362170093
2019-06-04,1.1289902512167183
2019-06-05,1.1300571657994853
2019-06-06,1.1241998389468315
2019-06-10,1.12870578255509
2019-06-11,1.1361242868517336
2019-06-12,1.1320452339788616
2019-06-13,1.1290644712755513
2019-06-14,1.1244559809695993
2019-06-17,1.124376622539148
2019-06-18,1.1263086386692127
2019-06-19,1.1336158752817778
2019-06-20,1.1514898493012693
2019-06-21,1.1516392884398194
2019-06-24,1.155110871100917
2019-06-25,1.1487767553201333
2019-06-26,1.1482439117379315
2019-06-27,1.1605874285087823
2019-06-28,1.1595021869183144
2019-07-01,1.1808251025787528
2019-07-02,1.182167115547438
2019-07-03,1.172932133541174
2019-07-04,1.1702794760752218
2019-07-05,1.1753664347538524
2019-07-08,1.1564328236602737
2019-07-09,1.1567353939728722
2019-07-10,1.158791579374577
2019-07-11,1.156897533692832
2019-07-12,1.1602248023576875
2019-07-15,1.163001394569274
2019-07-16,1.1591697445214257
2019-07-17,1.1611825840324135
2019-07-18,1.1572797079673955
2019-07-19,1.1618273121643454
2019-07-22,1.1617721596819328
2019-07-23,1.164651535542515
2019-07-24,1.1662037539820145
2019-07-25,1.169461924823851
2019-07-26,1.174254995907729
2019-07-29,1.1736767260796614
2019-07-30,1.1740756570473818
2019-07-31,1.1700517121666727
2019-08-01,1.169078766944147
2019-08-02,1.1635193771823376
2019-08-05,1.155646948913989
2019-08-06,1.1524016524726397
2019-08-07,1.1505359121614043
2019-08-08,1.1521463627093063
2019-08-09,1.1500649801389247
2019-08-12,1.1510953924564111
2019-08-13,1.1508504748568265
2019-08-14,1.1517848718962187
2019-08-15,1.1537280439700952
2019-08-16,1.1539266622756603
2019-08-19,1.1584328988322723
2019-08-20,1.160444264794261
2019-08-21,1.1601216360389337
2019-08-22,1.162170231438328
2019-08-23,1.1653642821598524
2019-08-26,1.1623618705979903
2019-08-27,1.1700588925360158
2019-08-28,1.169881762523371
2019-08-29,1.1688503461027948
2019-08-30,1.1700275910448048
2019-09-02,1.1793538501305192
2019-09-03,1.1803437941647124
2019-09-04,1.1806907682378573
2019-09-05,1.1834258720142252
2019-09-06,1.1861785644513017
2019-09-09,1.1905233373547803
2019-09-10,1.1887441279829096
2019-09-11,1.179184015977999
2019-09-12,1.182458523093311
2019-09-16,1.1786125686986113
2019-09-17,1.1693540215377656
2019-09-18,1.1697462984395053
2019-09-19,1.1717546457520343
2019-09-20,1.1734945872357343
2019-09-23,1.167192479608126
2019-09-24,1.1676580255294047
2019-09-25,1.1657887250826096
2019-09-26,1.1635541409575936
2019-09-27,1.1630609663564566
2019-09-30,1.1610386037284701
2019-10-08,1.162775238570885
2019-10-09,1.1614329721872425
2019-10-10,1.1641775472096114
2019-10-11,1.1669721172286371
2019-10-14,1.169211737495546
2019-10-15,1.170986029532934
2019-10-16,1.1696875698463247
2019-10-17,1.1694154044006204
2019-10-18,1.1664236415703282
2019-10-21,1.1685808934071695
2019-10-22,1.1697385295571743
2019-10-23,1.1664587582682449
2019-10-24,1.1660626131611203
2019-10-25,1.1720502199836416
2019-10-28,1.1724798778486094
2019-10-29,1.1729789231060943
2019-10-30,1.1729200938797983
2019-10-31,1.1707202323766184
2019-11-01,1.1767249242564195
2019-11-04,1.1802956487177396
2019-11-05,1.1841276868570525
2019-11-06,1.1812861775514127
2019-11-07,1.1822155106342767
2019-11-08,1.1816467397669916
2019-11-11,1.1713976520756835
2019-11-12,1.1717369283962447
2019-11-13,1.1748345487950231
2019-11-14,1.174484771834617
2019-11-15,1.170603771233597
2019-11-18,1.1709707601735027
2019-11-19,1.1756858769913612
2019-11-20,1.1720595416642678
2019-11-21,1.171161830959483
2019-11-22,1.166079671114197
2019-11-25,1.1704549040766314
2019-11-26,1.1726014518287808
2019-11-27,1.1702175140656659
2019-11-28,1.169733801744123
2019-11-29,1.166682380198388
2019-12-02,1.1700159029321755
2019-12-03,1.1717331034340088
2019-12-04,1.1704690765574917
2019-12-05,1.17287569245055
2019-12-06,1.175232130691466
2019-12-09,1.1781167823898588
2019-12-10,1.179263275377269
2019-12-11,1.1793069195478265
2019-12-12,1.176787010399392
2019-12-13,1.1809252835610944
2019-12-16,1.1851609919624564
2019-12-17,1.1911082798701302
2019-12-18,1.1876885394713461
2019-12-19,1.1898466281071065
2019-12-20,1.1879893668429693
2019-12-23,1.1801035833388167
2019-12-24,1.1845548228988987
2019-12-25,1.1864482705905244
2019-12-26,1.1925827026398328
2019-12-27,1.1921684300871926
2019-12-30,1.2030318676374734
2019-12-31,1.206366404380183
2020-01-02,1.2163382761447992
2020-01-03,1.2171525491943858
2020-01-06,1.2115073911138388
2020-01-07,1.2160975573115835
2020-01-08,1.2065412879614508
2020-01-09,1.2189509305902249
2020-01-10,1.2151394599523695
2020-01-13,1.222204506208998
2020-01-14,1.2202069393553698
2020-01-15,1.2158635192376825
2020-01-16,1.2145396667495256
2020-01-17,1.2163471822053027
2020-01-20,1.2210248851227035
2020-01-21,1.2121570235178267
2020-01-22,1.2182778830255732
2020-01-23,1.2072834154789658
2020-02-03,1.1935885972299374
2020-02-04,1.1983100696757676
2020-02-05,1.2049224563310021
2020-02-06,1.2078216140351543
2020-02-07,1.2060581629112104
2020-02-10,1.2075409143195346
2020-02-11,1.2068240147965443
2020-02-12,1.2073452161511251
2020-02-13,1.206782691101852
2020-02-14,1.2071846035932028
2020-02-17,1.213909518151278
2020-02-18,1.2143892081456316
2020-02-19,1.214979654909699
2020-02-20,1.2206084548804508
2020-02-21,1.2225670792528052
2020-02-24,1.2258571463028076
2020-02-25,1.2324725481810648
2020-02-26,1.2221787701513613
2020-02-27,1.223172509717863
2020-02-28,1.2125676833622603
2020-03-02,1.229389288546247
2020-03-03,1.2308481041123995
2020-03-04,1.235183801319622
2020-03-05,1.2405678636590756
2020-03-06,1.2277285396420534
2020-03-09,1.2112364934342483
2020-03-10,1.2199136727139603
2020-03-11,1.2149475466111825
2020-03-12,1.2055396236741993
2020-03-13,1.2018336953395043
2020-03-16,1.1890080815996884
2020-03-17,1.189023992955598
2020-03-18,1.1892226496138132
2020-03-19,1.1884121536278442
2020-03-20,1.1873990261842384
2020-03-23,1.1843881042269375
2020-03-24,1.1854254558693227
2020-03-25,1.18651184222897
2020-03-26,1.1886136945242691
2020-03-27,1.187258325724569
2020-03-30,1.1875224310110788
2020-03-31,1.1883078676974443
2020-04-01,1.187038227956066
2020-04-02,1.1865930772665325
2020-04-03,1.1872988115212277
2020-04-07,1.190201497282805
2020-04-08,1.1886921298277613
2020-04-09,1.1882218811953411
2020-04-10,1.18652068797525
2020-04-13,1.1870586615629768
2020-04-14,1.1906341720439444
2020-04-15,1.1865539165280863
2020-04-16,1.1874831740698744
2020-04-17,1.1923744651207042
2020-04-20,1.1967358777793538
2020-04-21,1.1921659229670283
2020-04-22,1.1973570843516912
2020-04-23,1.196930328427125
2020-04-24,1.1932378682057205
2020-04-27,1.1936258477705888
2020-04-28,1.2027324991394566
2020-04-29,1.2024220408444373
2020-04-30,1.2085282690040813
2020-05-06,1.2088331514183497
2020-05-07,1.2062748910939598
2020-05-08,1.2104558439090534
2020-05-11,1.2089686597215707
2020-05-12,1.211094055909553
2020-05-13,1.211859697870867
2020-05-14,1.2027760377930645
2020-05-15,1.201457010106149
2020-05-18,1.2036720779088443
2020-05-19,1.2085811044507273
2020-05-20,1.2046866105719694
2020-05-21,1.200504639106227
2020-05-22,1.1919858082181245
2020-05-25,1.1953516834428057
2020-05-26,1.1979537640623608
2020-05-27,1.1963959744588628
2020-05-28,1.1947229558929378
2020-05-29,1.1997321295870196
2020-06-01,1.205192552778262
2020-06-02,1.203342832260818
2020-06-03,1.2026301448944146
2020-06-04,1.2011983143881706
2020-06-05,1.2057565551579592
2020-06-08,1.2093274049682459
2020-06-09,1.214149794637583
2020-06-10,1.2115420941594535
2020-06-11,1.208356999280956
2020-06-12,1.2087643156332433
2020-06-15,1.2006247009915072
2020-06-16,1.2064918216322393
2020-06-17,1.2069842937553887
2020-06-18,1.210495438143654
2020-06-19,1.2181161654812913
2020-06-22,1.2190020397847072
2020-06-23,1.2251637165132274
2020-06-24,1.2292266589247276
2020-06-29,1.2307601265839927
2020-06-30,1.2417366679380217
2020-07-01,1.252944451487022
2020-07-02,1.2661379742085659
2020-07-03,1.2768504296018048
2020-07-06,1.3327318414200526
2020-07-07,1.3402752536413132
2020-07-08,1.3551782027568517
2020-07-09,1.3746892860971065
2020-07-10,1.354525814089115
2020-07-13,1.3852525073028161
2020-07-14,1.3798424795165058
2020-07-15,1.3719637728158127
2020-07-16,1.3176480782927265
2020-07-17,1.3266573435749098
2020-07-20,1.3514250639293885
2020-07-21,1.354083854772063
2020-07-22,1.3574612502162327
2020-07-23,1.3636989494373528
2020-07-24,1.3366196236292451
2020-07-27,1.3431669942886286
2020-07-28,1.3444054906300276
2020-07-29,1.353035506319289
2020-07-30,1.355704777294818
2020-07-31,1.3591372080869564
2020-08-03,1.3661911134568583
2020-08-04,1.3649848078778013
2020-08-05,1.370278532370896
2020-08-06,1.3677272461223702
2020-08-07,1.366835167729322
2020-08-10,1.3641469733797065
2020-08-11,1.3575050376293
2020-08-12,1.3503870278137406
2020-08-13,1.3521336315117056
2020-08-14,1.3537387554244351
2020-08-17,1.3597526606637294
2020-08-18,1.3593569457246375
2020-08-19,1.3577527075259284
2020-08-20,1.3485266103764413
2020-08-21,1.3507337779392072
2020-08-24,1.3529074408635613
2020-08-25,1.3524038489930916
2020-08-26,1.3501164752284116
2020-08-27,1.3521108888168025
2020-08-28,1.3594715546695328
2020-08-31,1.357975437395567
2020-09-01,1.3603493921752627
2020-09-02,1.360771276509485
2020-09-03,1.36210341346803
2020-09-04,1.3562326486823
2020-09-07,1.3449023383526215
2020-09-08,1.346374160104259
2020-09-09,1.3380875874179
2020-09-10,1.3409789354839234
2020-09-11,1.3450161062205341
2020-09-14,1.3481665242224916
2020-09-15,1.3524586063975679
2020-09-16,1.355169691229612
2020-09-17,1.3546257048968489
2020-09-18,1.3605416774716976
2020-09-21,1.3547256341322094
2020-09-22,1.346460627743146
2020-09-23,1.3475259922938425
2020-09-24,1.3380263447225054
2020-09-25,1.3370236269361304
2020-09-28,1.3408624166643295
2020-09-29,1.3402712604542744
2020-09-30,1.3420952592418292
2020-10-09,1.346571917353037
2020-10-12,1.3565719756843035
2020-10-13,1.3619843899815138
2020-10-14,1.36091407450044
2020-10-15,1.357549624873108
2020-10-16,1.3539852212208083
2020-10-19,1.3479529757919002
2020-10-20,1.3574979319355953
2020-10-21,1.3536294985647968
2020-10-22,1.3528119070008706
2020-10-23,1.3424228248953916
2020-10-26,1.34353922490533
2020-10-27,1.3438892161862384
2020-10-28,1.3485749910783427
2020-10-29,1.351674962738063
2020-10-30,1.3468004678821148
2020-11-02,1.3588227538867266
2020-11-03,1.3618398231745739
2020-11-04,1.3679948017602197
2020-11-05,1.375979965011219
2020-11-06,1.3800946826060492
2020-11-09,1.3899323286920289
2020-11-10,1.3855709736905413
2020-11-11,1.3758312775824504
2020-11-12,1.3768628198485517
2020-11-13,1.366547231494187
2020-11-16,1.3792305829894302
2020-11-17,1.3775418604195664
2020-11-18,1.3778437908838304
2020-11-19,1.3812293745436264
2020-11-20,1.3885623309562347
2020-11-23,1.3967214806160675
2020-11-24,1.3929874591990756
2020-11-25,1.3825319406428977
2020-11-26,1.389594215175422
2020-11-27,1.3984483529209895
2020-11-30,1.3968534014613994
2020-12-01,1.4104902162223778
2020-12-02,1.4120249354722532
2020-12-03,1.4034128345934835
2020-12-04,1.4027850582016923
2020-12-07,1.3936705059019059
2020-12-08,1.3902228825580947
2020-12-09,1.382955725904764
2020-12-10,1.3825174240489784
2020-12-11,1.3806517048122369
2020-12-14,1.3829105244198685
2020-12-15,1.3859192026203766
2020-12-16,1.3885614389868473
2020-12-17,1.3947584120791956
2020-12-18,1.394590848706591
2020-12-21,1.40433416599224
2020-12-22,1.4020616876161995
2020-12-23,1.4082425245886367
2020-12-24,1.4064632243121384
2020-12-25,1.413603021975421
2020-12-28,1.4181838921572445
2020-12-29,1.4086764925794844
2020-12-30,1.4245435223332366
2020-12-31,1.4376981011502568
2021-01-04,1.4565554052351137
2021-01-05,1.4760682000816636
2021-01-06,1.4799352206449063
2021-01-07,1.5033653088201664
2021-01-08,1.496887389761776
2021-01-11,1.4875481710246061
2021-01-12,1.5135619822503208
2021-01-13,1.5114769886326802
2021-01-14,1.4881337487073742
2021-01-15,1.483400471949435
2021-01-18,1.4924286168914291
2021-01-19,1.479058348012602
2021-01-20,1.480331795865444
2021-01-21,1.4879294428989538
2021-01-22,1.480840774366645
2021-01-25,1.4842295847783626
2021-01-26,1.4732080267222114
2021-01-27,1.4800884847605869
2021-01-28,1.466657101117823
2021-01-29,1.46426757367662
2021-02-01,1.467864267794472
2021-02-02,1.4690866712819253
2021-02-03,1.4695994103775014
2021-02-04,1.470262894407567
2021-02-05,1.4720722164495317
2021-02-08,1.4815598506587644
2021-02-09,1.4880630344266874
2021-02-10,1.5004736843671655
2021-02-18,1.4956546509890898
2021-02-19,1.495975859635955
2021-02-22,1.480768488761825
2021-02-23,1.4805937083302754
2021-02-24,1.466886413143385
2021-02-25,1.4701857823354074
2021-02-26,1.4556760422321429
2021-03-01,1.4614885348100282
2021-03-02,1.4572689427439636
2021-03-03,1.4650941400420923
2021-03-04,1.4591878574289998
2021-03-05,1.4512228109395435
2021-03-08,1.4511342160978766
2021-03-09,1.4503021881876224
2021-03-10,1.4477126442483972
2021-03-11,1.454256108495085
2021-03-12,1.4629390577084747
2021-03-15,1.4640085932365268
2021-03-16,1.4660790302252424
2021-03-17,1.4603405619859267
2021-03-18,1.4608354936685086
2021-03-19,1.4556932210113978
2021-03-22,1.4606426520672517
2021-03-23,1.4539439293567475
2021-03-24,1.44900468568766
2021-03-25,1.4477969409782607
2021-03-26,1.4496342814185503
2021-03-29,1.4513100536635126
2021-03-30,1.4509341963110374
2021-03-31,1.4517259367195376
2021-04-01,1.4521527947705841
2021-04-02,1.4523555969820228
2021-04-06,1.449836303376233
2021-04-07,1.4475188129404768
2021-04-08,1.449215289362319
2021-04-09,1.4412054922955324
2021-04-12,1.4398843329186528
2021-04-13,1.4371553523470992
2021-04-14,1.4389881429096179
2021-04-15,1.4374932766918143
2021-04-16,1.439561876621557
2021-04-19,1.4483414659739506
2021-04-20,1.4489659029596216
2021-04-21,1.4506338847678957
2021-04-22,1.4517811143952462
2021-04-23,1.4565292278849977
2021-04-26,1.4533129052747018
2021-04-27,1.4534749145115586
2021-04-28,1.4621785628495085
2021-04-29,1.4647174768775317
2021-04-30,1.462266901232992
2021-05-06,1.4562512892950619
2021-05-07,1.4474141693165832
2021-05-10,1.4524281124586125
2021-05-11,1.4510845210052512
2021-05-12,1.453862558582418
2021-05-13,1.4469987843907843
2021-05-14,1.4518403574967107
2021-05-17,1.4573316259740419
2021-05-18,1.4567923755550496
2021-05-19,1.4547597747316567
2021-05-20,1.4519826436047594
2021-05-21,1.4468070191336315
2021-05-24,1.4511122498319906
2021-05-25,1.4660331873620978
2021-05-26,1.4654898826462932
2021-05-27,1.465964905272994
2021-05-28,1.4683107989355866
2021-05-31,1.4715267491309325
2021-06-01,1.4739233898417976
2021-06-02,1.4661847812568014
2021-06-03,1.4617900665029835
2021-06-04,1.4651538118475025
2021-06-07,1.463791955296118
2021-06-08,1.4617115599261032
2021-06-09,1.4622344092324147
2021-06-10,1.4675648409898643
2021-06-11,1.4643702213707783
2021-06-15,1.4626663639441564
2021-06-16,1.4526326304387427
2021-06-17,1.4562103830698612
2021-06-18,1.4599736778744368
2021-06-21,1.4597599646964252
2021-06-22,1.459162564974489
2021-06-23,1.4619079291282107
2021-06-24,1.460993611610067
2021-06-25,1.4622094833652848
2021-06-28,1.4662455919270196
2021-06-29,1.4630228075049447
2021-06-30,1.4657707392780985
2021-07-01,1.4597604104812572
2021-07-02,1.448909909462568
2021-07-05,1.4510108093341136
2021-07-06,1.4475578639668687
2021-07-07,1.4525889618813255
2021-07-08,1.451335353161747
2021-07-09,1.4531618012572385
2021-07-12,1.4544023300797209
2021-07-13,1.4530662387350766
2021-07-14,1.4464613450232588
2021-07-15,1.4504379566133903
2021-07-16,1.445943820922442
2021-07-19,1.4471934842687455
2021-07-20,1.4440020922737953
2021-07-21,1.4523449464948985
2021-07-22,1.4527836483214853
2021-07-23,1.4517672853076284
2021-07-26,1.4422429300283421
2021-07-27,1.4333977325667158
2021-07-28,1.4297996698551012
2021-07-29,1.4351858308579997
2021-07-30,1.439128374000345
2021-08-02,1.4467451621588223
2021-08-03,1.4448889534628104
2021-08-04,1.451089285053133
2021-08-05,1.451961184196615
2021-08-06,1.4491467014477049
2021-08-09,1.449793022282502
2021-08-10,1.45106925662875
2021-08-11,1.4459267951569283
2021-08-12,1.442524025204471
2021-08-13,1.4403377643113542
2021-08-16,1.4426795403668482
2021-08-17,1.4371354743412046
2021-08-18,1.4426277456716017
2021-08-19,1.4371425228729917
2021-08-20,1.4341682443137174
2021-08-23,1.4358709860948435
2021-08-24,1.4375564883557885
2021-08-25,1.4383503751338784
2021-08-26,1.4362592499381117
2021-08-27,1.4382276793059057
2021-08-30,1.4428190501651879
2021-08-31,1.4513529591129135
2021-09-01,1.4555754584852454
2021-09-02,1.4656026680290686
2021-09-03,1.4619767391463596
2021-09-06,1.468378246811602
2021-09-07,1.47501314680731
2021-09-08,1.4795664109152982
2021-09-09,1.4901889427103414
2021-09-10,1.4883689805010352
2021-09-13,1.4971842414813052
2021-09-14,1.4788174054196594
2021-09-15,1.4722702097694096
2021-09-16,1.4691572307625456
2021-09-17,1.4710816316978264
2021-09-22,1.4828816161319527
2021-09-23,1.486550550317262
2021-09-24,1.4781375302148154
2021-09-27,1.4756597793515973
2021-09-28,1.4827876874774586
2021-09-29,1.4793130749245615
2021-09-30,1.4828726031022224
2021-10-08,1.4874036039378569
2021-10-11,1.485353756802838
2021-10-12,1.4809424907159519
2021-10-13,1.4852753017139997
2021-10-14,1.4808902259223826
2021-10-15,1.4795752374988056
2021-10-18,1.4682681019439943
2021-10-19,1.4695011266181097
2021-10-20,1.468567986984596
2021-10-21,1.467267678607564
2021-10-22,1.469997122171176
2021-10-25,1.47117938635305
2021-10-26,1.469940940145422
2021-10-27,1.4673868595968205
2021-10-28,1.4678588985351484
2021-10-29,1.4767268293434943
2021-11-01,1.4762706199966382
2021-11-02,1.474419323960655
2021-11-03,1.468223782313061
2021-11-04,1.4726894850005554
2021-11-05,1.4697030630685815
2021-11-08,1.4687051692001896
2021-11-09,1.4681515560258438
2021-11-10,1.4627933349087632
2021-11-11,1.4662526437313737
2021-11-12,1.4681283809831742
2021-11-15,1.465091001258144
2021-11-16,1.4597841856568687
2021-11-17,1.4588404569527282
2021-11-18,1.4569898998667266
2021-11-19,1.4606751954477861
2021-11-22,1.458446084218257
2021-11-23,1.4572175640371128
2021-11-24,1.4551289630719335
2021-11-25,1.4527571427173631
2021-11-26,1.450922928956835
2021-11-29,1.4529030366354803
2021-11-30,1.4514544264891083
2021-12-01,1.452621193419548
2021-12-02,1.4533576417232483
2021-12-03,1.461992455867371
2021-12-06,1.4583134708980094
2021-12-07,1.4578154947887265
2021-12-08,1.4606637247653698
2021-12-09,1.465888368708377
2021-12-10,1.4587964689435133
2021-12-13,1.4662397827726785
2021-12-14,1.458109894927097
2021-12-15,1.456432153700179
2021-12-16,1.4646845743863528
2021-12-17,1.4559782128734622
2021-12-20,1.4502935515826947
2021-12-21,1.4598113694601629
2021-12-22,1.4564596883277676
2021-12-23,1.46211837297119
2021-12-24,1.4611218031791193
2021-12-27,1.4630284247598897
2021-12-28,1.4604824374126943
2021-12-29,1.4537822432980325
2021-12-30,1.4573173039493703
2021-12-31,1.4624335718947858
2022-01-04,1.4681992954769327
2022-01-05,1.4665261469772248
2022-01-06,1.4621957052877919
2022-01-07,1.4708069885295323
2022-01-10,1.4775679604725298
2022-01-11,1.4729486114046884
2022-01-12,1.468278816253423
2022-01-13,1.459293092397958
2022-01-14,1.4482370609767092
2022-01-17,1.449850798864452
2022-01-18,1.4577820248109408
2022-01-19,1.4593795223063033
2022-01-20,1.4626360310360713
2022-01-21,1.4572975327883972
2022-01-24,1.4559131002965329
2022-01-25,1.4473740157251884
2022-01-26,1.4475180429874561
2022-01-27,1.4448515224584162
2022-01-28,1.4406041743651956
2022-02-07,1.4518469636674693
2022-02-08,1.458267522810034
2022-02-09,1.4588198489346056
2022-02-10,1.4648119993792847
2022-02-11,1.4653195910793535
2022-02-14,1.45453768515255
2022-02-15,1.4484940196215146
2022-02-16,1.4519516865093136
2022-02-17,1.449896043190744
2022-02-18,1.4579498664015014
2022-02-21,1.456192406892063
2022-02-22,1.4496228190107865
2022-02-23,1.445881100010066
2022-02-24,1.442179538025908
2022-02-25,1.4392739571805424
2022-02-28,1.4410596558359807
2022-03-01,1.4454397841899378
2022-03-02,1.4469894843932964
2022-03-03,1.4463572203704473
2022-03-04,1.4434674533442189
2022-03-07,1.4419231811140678
2022-03-08,1.4350366245781907
2022-03-09,1.4343952283823378
2022-03-10,1.4355869700091195
2022-03-11,1.4363020475492108
2022-03-14,1.430774835623043
2022-03-15,1.4189129751032037
2022-03-16,1.421698234765414
2022-03-17,1.4221487340961607
2022-03-18,1.4222849031249483
2022-03-21,1.424492926013939
2022-03-22,1.4234577186640802
2022-03-23,1.4218514060647793
2022-03-24,1.421182634541942
2022-03-25,1.4189025504033277
2022-03-28,1.4199565384712423
2022-03-29,1.4218285523604413
2022-03-30,1.4221213987921193
2022-03-31,1.4223576950471672
2022-04-01,1.4241935748796763
2022-04-06,1.4273605517638828
2022-04-07,1.4214252043586302
2022-04-08,1.4270357921183998
2022-04-11,1.4201490797265341
2022-04-12,1.4188479825292053
2022-04-13,1.4211072429666256
2022-04-14,1.4311692960806757
2022-04-15,1.4277248124109234
2022-04-18,1.4145404445494132
2022-04-19,1.4135004342841293
2022-04-20,1.3989680326957532
2022-04-21,1.393087132613677
2022-04-22,1.394367028804635
2022-04-25,1.382426023128798
2022-04-26,1.3820595395390647
2022-04-27,1.3842716191684357
2022-04-28,1.3837985195032945
2022-04-29,1.388637113882195
2022-05-05,1.3862511294866877
2022-05-06,1.377461525463704
2022-05-09,1.3755766250256265
2022-05-10,1.3796331604211631
2022-05-11,1.3794584363499383
2022-05-12,1.3799320937391766
2022-05-13,1.384837772231998
2022-05-16,1.3821429480453202
2022-05-17,1.384223107427031
2022-05-18,1.383325542080626
2022-05-19,1.3868433896023498
2022-05-20,1.3903800837871458
2022-05-23,1.3881909264992702
2022-05-24,1.3820292764267545
2022-05-25,1.3862605410787863
2022-05-26,1.3883423635152492
2022-05-27,1.3878761958872106
2022-05-30,1.3886560442082496
2022-05-31,1.39398503802689
2022-06-01,1.3944038241978522
2022-06-02,1.395508881874718
2022-06-06,1.4079246286800982
2022-06-07,1.4091830778617636
2022-06-08,1.4165996674660128
2022-06-09,1.4060704292592971
2022-06-10,1.4192590847275939
2022-06-13,1.4078400869324101
2022-06-14,1.4135294358426143
2022-06-15,1.4204125010694995
2022-06-16,1.415568958089068
2022-06-17,1.4235306580904308
2022-06-20,1.426788166610537
2022-06-21,1.4264399287371223
2022-06-22,1.417083690318515
2022-06-23,1.4268888177674015
2022-06-24,1.4352797123108056
2022-06-27,1.4489729110676197
2022-06-28,1.4596128457427042
2022-06-29,1.4463200818389514
2022-06-30,1.4615398437358136
2022-07-01,1.4586586382864646
2022-07-04,1.470310274403741
2022-07-05,1.4681211379407286
2022-07-06,1.4494629167394069
2022-07-07,1.4517348357826068
2022-07-08,1.4542160456803597
2022-07-11,1.44717724291541
2022-07-12,1.4458777697137075
2022-07-13,1.4455177823316552
2022-07-14,1.444709018588165
2022-07-15,1.4335738914018017
2022-07-18,1.4353636810411097
2022-07-19,1.434000261301755
2022-07-20,1.4357126581990092
2022-07-21,1.4349808687756438
2022-07-22,1.435527650046068
2022-07-25,1.4350001819228306
2022-07-26,1.4334393240493184
2022-07-27,1.4323981942202442
2022-07-28,1.4326411475327603
2022-07-29,1.4298896462363966
2022-08-01,1.4297507694108773
2022-08-02,1.4274622742896104
2022-08-03,1.4244746167811515
2022-08-04,1.4249053108157972
2022-08-05,1.4249870789933343
2022-08-08,1.4249965975930676
2022-08-09,1.4251437354840624
2022-08-10,1.4239660902003417
2022-08-11,1.4272309425111018
2022-08-12,1.426821448526505
2022-08-15,1.423458157913056
2022-08-16,1.422234799957565
2022-08-17,1.426190705286079
2022-08-18,1.4221530203063
2022-08-19,1.423287326074779
2022-08-22,1.429757242262547
2022-08-23,1.4292145863439873
2022-08-24,1.4226678203925232
2022-08-25,1.431460190338013
2022-08-26,1.4265431442232375
2022-08-29,1.4263733764244948
2022-08-30,1.4233318038104354
2022-08-31,1.421983971426912
2022-09-01,1.422217366548302
2022-09-02,1.4199649821233142
2022-09-05,1.4252543634013668
2022-09-06,1.4289351968867448
2022-09-07,1.4259066980399022
2022-09-08,1.426957372958757
2022-09-09,1.4366393850345753
2022-09-13,1.4350292584392679
2022-09-14,1.4296422540741964
2022-09-15,1.4326854790092503
2022-09-16,1.4146267962146026
2022-09-19,1.417377711415833
2022-09-20,1.4115186530711819
2022-09-21,1.4094952876573295
2022-09-22,1.4061361861227621
2022-09-23,1.4059674079115696
2022-09-26,1.4052369155047864
2022-09-27,1.4072631657421868
2022-09-28,1.405741892802374
2022-09-29,1.4036348395132539
2022-09-30,1.4036867397565598
2022-10-10,1.3992326915144877
2022-10-11,1.398405616386102
2022-10-12,1.3980984041088318
2022-10-13,1.397256399763462
2022-10-14,1.3969287349485036
2022-10-17,1.3978578593165922
2022-10-18,1.3980063579246396
2022-10-19,1.3969109524515597
2022-10-20,1.395989102610181
2022-10-21,1.396407287798652
2022-10-24,1.392970838768506
2022-10-25,1.3913017304708573
2022-10-26,1.3931148507168243
2022-10-27,1.3928136845687002
2022-10-28,1.390868710360416
2022-10-31,1.393966013900867
2022-11-01,1.395309425929094
2022-11-02,1.396982235288725
2022-11-03,1.3954468755502456
2022-11-04,1.3994571332238712
2022-11-07,1.4003366131766726
2022-11-08,1.3972299829143493
2022-11-09,1.3943954012479987
2022-11-10,1.3911724742627993
2022-11-11,1.3961896934257236
2022-11-14,1.39475958965275
2022-11-15,1.4026782191828966
2022-11-16,1.398356275893424
2022-11-17,1.3967292803250306
2022-11-18,1.3947502215027838
2022-11-21,1.3906120021932973
2022-11-22,1.3935946348957504
2022-11-23,1.394561532543304
2022-11-24,1.39087663884369
2022-11-25,1.4009822531705927
2022-11-28,1.3916846463677186
2022-11-29,1.4094295874382476
2022-11-30,1.4062482724546415
2022-12-01,1.4100477458228855
2022-12-02,1.4030232286215416
2022-12-05,1.4266764837966641
2022-12-06,1.4263531672670235
2022-12-07,1.4208432096280934
2022-12-08,1.4208616218563146
2022-12-09,1.4326698512953728
2022-12-12,1.4196615252585343
2022-12-13,1.421463556397165
2022-12-14,1.4263175984856014
2022-12-15,1.4204673020118457
2022-12-16,1.4253589090251126
2022-12-19,1.4105408954526584
2022-12-20,1.399028408214753
2022-12-21,1.4010141701534495
2022-12-22,1.4021014284772204
2022-12-23,1.4022572715460642
2022-12-26,1.399806824858059
2022-12-27,1.401156128149545
2022-12-28,1.4002199624532525
2022-12-29,1.3988286208335636
2022-12-30,1.3991364163518714
2023-01-03,1.398595750005764
2023-01-04,1.3992919002954194
2023-01-05,1.401240323171393
2023-01-06,1.400748437151672
2023-01-09,1.4021018062796442
2023-01-10,1.4013320493691228
2023-01-11,1.4014906555283426
2023-01-12,1.4010966352188088
2023-01-13,1.4100158961204599
2023-01-16,1.4172195387180588
2023-01-17,1.4145316519364455
2023-01-18,1.4117733759134603
2023-01-19,1.416627618495856
2023-01-20,1.4206896681349075
2023-01-30,1.4179126065220575
2023-01-31,1.4123686848645076
2023-02-01,1.4220079976388018
2023-02-02,1.417218998798642
2023-02-03,1.4110846157966066
2023-02-06,1.4030140807628826
2023-02-07,1.404163014799886
2023-02-08,1.4004847478092777
2023-02-09,1.4055278241926812
2023-02-10,1.4045235980479742
2023-02-13,1.4072585933287485
2023-02-14,1.4087566210939233
2023-02-15,1.4069137372652176
2023-02-16,1.403675317061535
2023-02-17,1.4017902348684435
2023-02-20,1.41212695306226
2023-02-21,1.4144630192540733
2023-02-22,1.4133097748687409
2023-02-23,1.411375662656262
2023-02-24,1.4085167429727983
2023-02-27,1.4083722102095773
2023-02-28,1.4110832633853085
2023-03-01,1.4190703619540135
2023-03-02,1.423839131690998
2023-03-03,1.4290610173031244
2023-03-06,1.423697556038341
2023-03-07,1.416104822984588
2023-03-08,1.416975216773989
2023-03-09,1.4172406016325505
2023-03-10,1.41089010175715
2023-03-13,1.4211686930501586
2023-03-14,1.418226150875052
2023-03-15,1.4225136806025072
2023-03-16,1.4159931351225368
2023-03-17,1.422583537149192
2023-03-20,1.418455818727128
2023-03-21,1.4164608094476787
2023-03-22,1.4186928464660438
2023-03-23,1.4222001027899687
2023-03-24,1.4174932768477426
2023-03-27,1.4123418554129445
2023-03-28,1.4112385268222596
2023-03-29,1.4104087105648204
2023-03-30,1.4086252878620158
2023-03-31,1.4092241482594472
2023-04-03,1.4083859079029362
2023-04-04,1.4120275942712974
2023-04-06,1.4132282405375283
2023-04-07,1.415495014319817
2023-04-10,1.415281624611766
2023-04-11,1.4153668100014554
2023-04-12,1.4188861093062382
2023-04-13,1.4124303660473574
2023-04-14,1.4144715333517168
2023-04-17,1.420094316604285
2023-04-18,1.4210012915358001
2023-04-19,1.412369837854498
2023-04-20,1.4124068892497161
2023-04-21,1.4005029484913678
2023-04-24,1.398031871847791
2023-04-25,1.3964395524725373
2023-04-26,1.3919312686817191
2023-04-27,1.3950570364246706
2023-04-28,1.3967523456487296
2023-05-04,1.398488997191075
2023-05-05,1.3948799419746496
2023-05-08,1.4022254171875161
2023-05-09,1.3969414139213405
2023-05-10,1.3919708048728845
2023-05-11,1.3937226923838226
2023-05-12,1.3896284157108694
2023-05-15,1.391509707841375
2023-05-16,1.3907124642819368
2023-05-17,1.388900122633049
2023-05-18,1.3890098501753343
2023-05-19,1.3856788331178955
2023-05-22,1.3876332056420564
2023-05-23,1.3856016234887318
2023-05-24,1.383539285387552
2023-05-25,1.3826994746690098
2023-05-26,1.3827527551656251
2023-05-29,1.3838084547171752
2023-05-30,1.3830916101445223
2023-05-31,1.3826692004745862
2023-06-01,1.380883161079052
2023-06-02,1.3808632970769634
2023-06-05,1.3803586616646424
2023-06-06,1.3772455602486986
2023-06-07,1.3774354491315903
2023-06-08,1.3777794179818006
2023-06-09,1.378148398362277
2023-06-12,1.3780328135553344
2023-06-13,1.3781227492229822
2023-06-14,1.3784877883240951
2023-06-15,1.3811481502016465
2023-06-16,1.3835199215887515
2023-06-19,1.380707881443167
2023-06-20,1.3816704887601978
2023-06-21,1.3758486098680762
2023-06-26,1.371618283250501
2023-06-27,1.3761394913789442
2023-06-28,1.3747927746859503
2023-06-29,1.3740582196362594
2023-06-30,1.3775500576638866
2023-07-03,1.3813006238464063
2023-07-04,1.3828208210938933
2023-07-05,1.3804555850942852
2023-07-06,1.3779395485930774
2023-07-07,1.378125308934615
2023-07-10,1.3780184543201386
2023-07-11,1.381132748576714
2023-07-12,1.3774051501413258
2023-07-13,1.3816842926112176
2023-07-14,1.3805864556011196
2023-07-17,1.37690677582843
2023-07-18,1.3772927409973617
2023-07-19,1.377256791513308
2023-07-20,1.372399852054035
2023-07-21,1.372765580200284
2023-07-24,1.3706646982384414
2023-07-25,1.3803471920890549
2023-07-26,1.379846723182185
2023-07-27,1.37966630366999
2023-07-28,1.4000305650533098
2023-07-31,1.4073757638833848
2023-08-01,1.4017589998256756
2023-08-02,1.3971476080039102
2023-08-03,1.4046089525484997
2023-08-04,1.406320335111698
2023-08-07,1.3988600305250978
2023-08-08,1.3943195974326854
2023-08-09,1.3921644585674529
2023-08-10,1.3953761369709388
2023-08-11,1.378340858969655
2023-08-14,1.377152378674837
2023-08-15,1.375879803349607
2023-08-16,1.3749257443429317
2023-08-17,1.3748570478581836
2023-08-18,1.3733679865209498
2023-08-21,1.371956355644524
2023-08-22,1.3722553494053789
2023-08-23,1.3716156776748027
2023-08-24,1.3696354424645636
2023-08-25,1.3696112313961593
2023-08-28,1.3698803263969963
2023-08-29,1.3693871388770371
2023-08-30,1.3692808964788576
2023-08-31,1.3667968334549998
2023-09-01,1.3693970702275018
2023-09-04,1.3718083366994123
2023-09-05,1.369837704526545
2023-09-06,1.3689969708287635
2023-09-07,1.367414615888519
2023-09-08,1.365722109581065
2023-09-11,1.3655956287929027
2023-09-12,1.3651763693548857
2023-09-13,1.3647037597923857
2023-09-14,1.3668780635943785
2023-09-15,1.3645964203280634
2023-09-18,1.3653415750148783
2023-09-19,1.366422103117502
2023-09-20,1.3654135654738462
2023-09-21,1.3629968908893861
2023-09-22,1.3638038057413897
2023-09-25,1.3638006840567418
2023-09-26,1.362593194196319
2023-09-27,1.3613768326814466
2023-09-28,1.3606102420477655
2023-10-09,1.3619798583416587
2023-10-10,1.36148852065008
2023-10-11,1.361898566863138
2023-10-12,1.3627594270456131
2023-10-13,1.3628847615793511
2023-10-16,1.362069954462293
2023-10-17,1.3632663590548375
2023-10-18,1.3632158810730564
2023-10-19,1.3601660986217623
2023-10-20,1.358747965765535
2023-10-23,1.3591398066502867
2023-10-24,1.358675271185694
2023-10-25,1.3590415672976683
2023-10-26,1.3586074860313782
2023-10-27,1.359755940756356
2023-10-30,1.3639414399710375
2023-10-31,1.3633885663438137
2023-11-01,1.362748857273523
2023-11-02,1.3613526156313884
2023-11-03,1.3620575869289555
2023-11-06,1.3642182318023064
2023-11-07,1.3627224570440557
2023-11-08,1.3622721960039743
2023-11-09,1.3608344619365975
2023-11-10,1.360016291157437
2023-11-13,1.3584815536425168
2023-11-14,1.358317591889541
2023-11-15,1.3595450289202025
2023-11-16,1.3570638421722883
2023-11-17,1.3559614687168813
2023-11-20,1.3559219540923473
2023-11-21,1.3557727218644962
2023-11-22,1.3547975222899507
2023-11-23,1.3555723139213123
2023-11-24,1.3553368368189989
2023-11-27,1.3543173384573954
2023-11-28,1.3539171480999188
2023-11-29,1.3539166532089046
2023-11-30,1.3551170849403222
2023-12-01,1.3541911607978385
2023-12-04,1.3549763941581237
2023-12-05,1.35246769955751
2023-12-06,1.3524114577814477
2023-12-07,1.3520062103619268
2023-12-08,1.3524285036858572
2023-12-11,1.3536547867359079
2023-12-12,1.3546424637022225
2023-12-13,1.3539274667505923
2023-12-14,1.353314665140749
2023-12-15,1.3518016026206217
2023-12-18,1.3532037896110551
2023-12-19,1.3530325957759053
2023-12-20,1.3525647024612104
2023-12-21,1.3525077562745667
2023-12-22,1.352996415440418
2023-12-25,1.3542098701990752
2023-12-26,1.353916682736878
2023-12-27,1.3551657194289
2023-12-28,1.3531334370991817
2023-12-29,1.3571234591266903
2024-01-02,1.3569710361179397
2024-01-03,1.3572809481285975
2024-01-04,1.3564985971185666
2024-01-05,1.353537644745776
2024-01-08,1.348920543364685
2024-01-09,1.3499191027172757
2024-01-10,1.3491238472226887
2024-01-11,1.348196829804121
2024-01-12,1.3498780005737492
2024-01-15,1.351709712378587
2024-01-16,1.3541150853545176
2024-01-17,1.3496470013912736
2024-01-18,1.3524573094691492
2024-01-19,1.3507020596113595
2024-01-22,1.3475779083186918
2024-01-23,1.348276858705948
2024-01-24,1.3513679993260206
2024-01-25,1.3568264409490558
2024-01-26,1.3599759942807754
2024-01-29,1.3619873371373123
2024-01-30,1.357239851591799
2024-01-31,1.3549504907801337
2024-02-01,1.3504821324038316
2024-02-02,1.3511662234513733
2024-02-05,1.352687577210962
2024-02-06,1.3605007401523366
2024-02-07,1.3654977027217865
2024-02-08,1.3660666354720292
2024-02-19,1.3753756450627523
2024-02-20,1.3790381683121609
2024-02-21,1.386583588704473
2024-02-22,1.392219329660819
2024-02-23,1.3896076086269231
2024-02-26,1.37739996666289
2024-02-27,1.384740953652033
2024-02-28,1.3749239407362137
2024-02-29,1.3896298351253793
2024-03-01,1.3906016334420228
2024-03-04,1.3922757558606744
2024-03-05,1.3993911003535253
2024-03-06,1.3959981355331723
2024-03-07,1.3926018893518368
2024-03-08,1.3940398373806007
2024-03-11,1.3986811431290302
2024-03-12,1.3943641108881908
2024-03-13,1.3903427500375665
2024-03-14,1.391123119565288
2024-03-15,1.3910246071802703
2024-03-18,1.3982712119525953
2024-03-19,1.3948060493541543
2024-03-20,1.3949754483155223
2024-03-21,1.395564974201576
2024-03-22,1.3886862034807672
2024-03-25,1.3862922431121176
2024-03-26,1.389493216426716
2024-03-27,1.385143397456723
2024-03-28,1.3858081321533728
2024-03-29,1.388584135489046
2024-04-01,1.3938325501708189
2024-04-02,1.3913144474723753
2024-04-03,1.3928970419002646
2024-04-08,1.3910017355365052
2024-04-09,1.387832985326006
2024-04-10,1.3903169560358515
2024-04-11,1.3917357770447332
2024-04-12,1.3905594764603795
2024-04-15,1.4019205836879438
2024-04-16,1.4008726169738437
2024-04-17,1.4067041945802254
2024-04-18,1.4058481902929654
2024-04-19,1.4075293204660515
2024-04-22,1.3999100791895822
2024-04-23,1.3914106731542084
2024-04-24,1.3927377810130708
2024-04-25,1.394879112271889
2024-04-26,1.3966519807798532
2024-04-29,1.397595401046094
2024-04-30,1.396209397292296
2024-05-06,1.4063922176264012
2024-05-07,1.407373967351977
2024-05-08,1.4008171830725946
2024-05-09,1.4086164268345958
2024-05-10,1.4098584626301405
2024-05-13,1.4101224895772269
2024-05-14,1.410833563883125
2024-05-15,1.4060946247371546
2024-05-16,1.4095630927937275
2024-05-17,1.421356453392931
2024-05-20,1.424405261048059
2024-05-21,1.4219067978951159
2024-05-22,1.4219825659645215
2024-05-23,1.4145693914508612
2024-05-24,1.4062591682031154
2024-05-27,1.4094370917675008
2024-05-28,1.4054979872127422
2024-05-29,1.4076647664545363
2024-05-30,1.4031066598547055
2024-05-31,1.3996157216583827
2024-06-03,1.4034196823962481
2024-06-04,1.4039585048921153
2024-06-05,1.4035379427251533
2024-06-06,1.4031470149137917
2024-06-07,1.4049961790579892
2024-06-11,1.4032518224435413
2024-06-12,1.4049819500824923
2024-06-13,1.4057007907140726
2024-06-14,1.4028388913393017
2024-06-17,1.4047581062763406
2024-06-18,1.4058595088335815
2024-06-19,1.405518581420723
2024-06-20,1.4047514040240656
2024-06-21,1.4050430855891447
2024-06-24,1.4041760772364655
2024-06-25,1.4025658503819107
2024-06-26,1.4032736097078016
2024-06-27,1.4028356543199394
2024-06-28,1.4055054429467018
2024-07-01,1.4077895905361515
2024-07-02,1.4085587821290464
2024-07-03,1.4075611263530738
2024-07-04,1.4081565382928858
2024-07-05,1.4062460649156012
2024-07-08,1.4094981708724392
2024-07-09,1.4132317626171627
2024-07-10,1.4081867091219042
2024-07-11,1.4108154388222494
2024-07-12,1.4095265345717394
2024-07-15,1.4118565868032749
2024-07-16,1.4147886712525655
2024-07-17,1.4128591153700758
2024-07-18,1.4159979823027988
2024-07-19,1.4184158881376787
2024-07-22,1.413607763170382
2024-07-23,1.4010566335056711
2024-07-24,1.3991580250062894
2024-07-25,1.3989227851388912
2024-07-26,1.3977236659131667
2024-07-29,1.3927039034211905
2024-07-30,1.3907975116393367
2024-07-31,1.3913798237554724
2024-08-01,1.391999666323782
2024-08-02,1.3896400138658442
2024-08-05,1.3875518944791319
2024-08-06,1.3880058724055644
2024-08-07,1.3865658742903884
2024-08-08,1.386273728738591
2024-08-09,1.3842315942554881
2024-08-12,1.3838077239120525
2024-08-13,1.383716352157314
2024-08-14,1.383081865532057
2024-08-15,1.3856241515197063
2024-08-16,1.384041083474556
2024-08-19,1.3843718240919445
2024-08-20,1.382173451756021
2024-08-21,1.3812347388519863
2024-08-22,1.3814391680806877
2024-08-23,1.3822576321973603
2024-08-26,1.382027634989209
2024-08-27,1.3803374209353971
2024-08-28,1.377469200684587
2024-08-29,1.3733479552504717
2024-08-30,1.3735223959161271
2024-09-02,1.3681519033639655
2024-09-03,1.3706808438805338
2024-09-04,1.3695077940100415
2024-09-05,1.3696461166639207
2024-09-06,1.3652789147183853
2024-09-09,1.3621458330696536
2024-09-10,1.3614253367424567
2024-09-11,1.3647247876480844
2024-09-12,1.3634846645429448
2024-09-13,1.3624294592961672
2024-09-18,1.3650861617908996
2024-09-19,1.3672435993546035
2024-09-20,1.3666483432772807
2024-09-23,1.3662652907926338
2024-09-24,1.3730957149688805
2024-09-25,1.3789838954917402
2024-09-26,1.4058444916413315
2024-09-27,1.4497792386091544
2024-09-30,1.5297574253342896
2024-10-08,1.5747628115594932
2024-10-09,1.4855512752357096
2024-10-10,1.5065146461079508
2024-10-11,1.4819525542803005
2024-10-14,1.5008894188650788
2024-10-15,1.475426421781451
2024-10-16,1.4730962269109775
2024-10-17,1.4524207337819806
2024-10-18,1.4747059154493838
2024-10-21,1.4801400147377057
2024-10-22,1.4861199275338464
2024-10-23,1.493624358247659
2024-10-24,1.4816501331409617
2024-10-25,1.4872924124193767
2024-10-28,1.4932153268042259
2024-10-29,1.4841806094294363
2024-10-30,1.4822106068894885
2024-10-31,1.4845590812612375
2024-11-01,1.4847303555482712
2024-11-04,1.4899647239204667
2024-11-05,1.5033075470616521
2024-11-06,1.5035714937162323
2024-11-07,1.517994044471661
2024-11-08,1.5092682536389261
2024-11-11,1.508107031162472
2024-11-12,1.5003341444760707
2024-11-13,1.4999053939377756
2024-11-14,1.4866147860105012
2024-11-15,1.4789766487351543
2024-11-18,1.4777225033790384
2024-11-19,1.4746362618666429
2024-11-20,1.4745149392855188
2024-11-21,1.4740402943426274
2024-11-22,1.467708327584935
2024-11-25,1.4670591923247778
2024-11-26,1.4668885976606372
2024-11-27,1.4684608759388205
2024-11-28,1.4683062998314653
2024-11-29,1.4680157453996985
2024-12-02,1.4672700470358577
2024-12-03,1.4670829794739966
2024-12-04,1.467941721469029
2024-12-05,1.4675524708830785
2024-12-06,1.4690513215261674
2024-12-09,1.470738199722775
2024-12-10,1.4698345926989682
2024-12-11,1.4705592503526423
2024-12-12,1.4711446914562305
2024-12-13,1.4629230662409418
2024-12-16,1.4631912932341704
2024-12-17,1.4630310141472094
2024-12-18,1.4649676573918133
2024-12-19,1.4643684554319003
2024-12-20,1.4598004415786228
2024-12-23,1.4617265061348974
2024-12-24,1.4661559486178033
2024-12-25,1.4675046881401443
2024-12-26,1.4686799009726876
2024-12-27,1.4688696944570026
2024-12-30,1.4695640509528176
2024-12-31,1.4669520246298449
2025-01-02,1.454772791378507
2025-01-03,1.451250385641178
2025-01-06,1.4515442364888484
2025-01-07,1.4508790570263999
2025-01-08,1.452837723838562
2025-01-09,1.4514576246808213
2025-01-10,1.4500845163147251
2025-01-13,1.4496229331835693
2025-01-14,1.4508996039771525
2025-01-15,1.4508104229804233
2025-01-16,1.4514651773080556
2025-01-17,1.451916604450591
2025-01-20,1.4501369640314379
2025-01-21,1.4521644171058592
2025-01-22,1.450259366964484
2025-01-23,1.449445551307637
2025-01-24,1.4506170131135425
2025-01-27,1.4504646188718755
2025-02-05,1.4510733839665273
2025-02-06,1.4512512971630862
2025-02-07,1.4537343737137656
2025-02-10,1.455270070386849
2025-02-11,1.45359767669525
2025-02-12,1.4618434712247637
2025-02-13,1.4614534703414412
2025-02-14,1.4668692934099017
2025-02-17,1.4683114828705517
2025-02-18,1.462736674597852
2025-02-19,1.4711564519025337
2025-02-20,1.4672660683517165
2025-02-21,1.4753368490219356
2025-02-24,1.475113488226872
2025-02-25,1.4657848703447331
2025-02-26,1.4700122957888033
2025-02-27,1.4712155983451018
2025-02-28,1.4600105635864495
2025-03-03,1.4601824817801574
2025-03-04,1.4579405986226728
2025-03-05,1.4594501525218206
2025-03-06,1.463365740731196
2025-03-07,1.4630341905117152
2025-03-10,1.460906518754737
2025-03-11,1.463876785243292
2025-03-12,1.4600167121768954
2025-03-13,1.4590161275237368
2025-03-14,1.468424047199437
2025-03-17,1.468885366757934
2025-03-18,1.4671388641325134
2025-03-19,1.4688879248193798
2025-03-20,1.4639956774788823
2025-03-21,1.4567134059235252
2025-03-24,1.457924920242335
2025-03-25,1.4573626698729685
2025-03-26,1.4569623098094717
2025-03-27,1.4568458535770425
2025-03-28,1.4541690306435722
2025-03-31,1.4530195614157828
2025-04-01,1.4534303414074363
2025-04-02,1.4519438804866582
2025-04-03,1.453090506817449
2025-04-07,1.4436923280248983
2025-04-08,1.4511964014003762
2025-04-09,1.453094945210213
2025-04-10,1.4532581573275412
2025-04-11,1.4468231339377573
2025-04-14,1.4468338706846777
2025-04-15,1.4446795772125054
2025-04-16,1.4477384263007351
2025-04-17,1.4482783055383446
2025-04-18,1.4455321723886712
2025-04-21,1.4432931595305114
2025-04-22,1.444008176773877
2025-04-23,1.4395063012182199
2025-04-24,1.4413494877000401
2025-04-25,1.439171292521244
2025-04-28,1.4374939806475229
2025-04-29,1.4369433141159083
2025-04-30,1.435226225657067
2025-05-06,1.4345606210746635
2025-05-07,1.4345562557985794
2025-05-08,1.4357501384699651
2025-05-09,1.4355828617350652
2025-05-12,1.4429949659360566
2025-05-13,1.4421118207627714
2025-05-14,1.4463009759234173
2025-05-15,1.4395490554694321
2025-05-16,1.4357661299249271
2025-05-19,1.43499680516378
2025-05-20,1.439689836782737
2025-05-21,1.4431827357906757
2025-05-22,1.442811243387031
2025-05-23,1.436400267249345
2025-05-26,1.4335274227586166
2025-05-27,1.4292157246633062
2025-05-28,1.43091244468529
2025-05-29,1.4292821402564588
2025-05-30,1.4281173906515885
2025-06-03,1.4286636418624286
2025-06-04,1.427464972479215
2025-06-05,1.4261244247672757
2025-06-06,1.426321188156139
2025-06-09,1.4285429863464947
2025-06-10,1.4281527040994004
2025-06-11,1.430740471114926
2025-06-12,1.4318165942554852
2025-06-13,1.4320104539516854
2025-06-16,1.4310478327449263
2025-06-17,1.4305231495269946
2025-06-18,1.4292489021080654
2025-06-19,1.4257870845081435
2025-06-20,1.4262676979614923
2025-06-23,1.4271697705767608
2025-06-24,1.4272623242799345
2025-06-25,1.4333266606602868
2025-06-26,1.431310007264685
2025-06-27,1.4296256147997815
2025-06-30,1.4323635704152884
2025-07-01,1.4318292058481887
2025-07-02,1.4341835674022574
2025-07-03,1.4379252011510688
2025-07-04,1.4395475156980178
2025-07-07,1.437623313964955
2025-07-08,1.4444894979555118
2025-07-09,1.442873339214996
2025-07-10,1.4482099022140857
2025-07-11,1.4486261968797083
2025-07-14,1.4480151517744724
2025-07-15,1.4455781024566077
2025-07-16,1.443954086192746
2025-07-17,1.450176296891811
2025-07-18,1.4552432634076005
2025-07-21,1.4625654542218303
2025-07-22,1.479584235507358
2025-07-23,1.4730090136585723
2025-07-24,1.4825287297903669
2025-07-25,1.4720934759001716
2025-07-28,1.4693281348798313
2025-07-29,1.4718211127072294
2025-07-30,1.4727205132011194
2025-07-31,1.4511130395808132
2025-08-01,1.4460845882185174
2025-08-04,1.445784715641791
2025-08-05,1.4475428059804691
2025-08-06,1.4485414613286267
2025-08-07,1.4487951240984707
2025-08-08,1.4496519346761958
2025-08-11,1.4493354910891167
2025-08-12,1.4505340972924488
2025-08-13,1.4527807834394026
2025-08-14,1.4503834410300505
2025-08-15,1.4561214208092517
2025-08-18,1.4606656579913357
2025-08-19,1.455794310742723
2025-08-20,1.46149805009931
2025-08-21,1.4666390855652223
2025-08-22,1.4748632640313468
2025-08-25,1.4838132892064273
2025-08-26,1.487933931033201
2025-08-27,1.4692520939743934
2025-08-28,1.4744009616202405
2025-08-29,1.475493167294707
2025-09-01,1.4783644908835323
2025-09-02,1.4717608701492795
2025-09-03,1.4651428474599655
2025-09-04,1.4582220092316145
2025-09-05,1.4709374534713604
2025-09-08,1.4773178626402093
2025-09-09,1.475651599188451
2025-09-10,1.4719100645026861
2025-09-11,1.477341456684944
2025-09-12,1.475504849972806
2025-09-15,1.4797291694563492
2025-09-16,1.478279409317748
2025-09-17,1.4804519708424624
2025-09-18,1.4725525155375294
2025-09-19,1.4751001436000557
2025-09-22,1.4763912131501564
2025-09-23,1.4755218090293059
2025-09-24,1.480498598160975
2025-09-25,1.4817540104909899
2025-09-26,1.479427111173845
2025-09-29,1.4832041082683727
2025-09-30,1.4876871378774357
2025-10-09,1.4905512072754334
2025-10-10,1.4835291875518282
2025-10-13,1.4820521759574763
2025-10-14,1.4798879833868355
2025-10-15,1.482149086725281
2025-10-16,1.4854931037025094
2025-10-17,1.477356391393584
2025-10-20,1.4765685938350348
2025-10-21,1.477516159330528
2025-10-22,1.476598864850661
2025-10-23,1.4780289919747345
2025-10-24,1.4757745500691941
2025-10-27,1.4792906316733945
2025-10-28,1.475776743977594
2025-10-29,1.480313427125556
2025-10-30,1.4818487469939259
2025-10-31,1.4743971532221762
2025-11-03,1.476968853238111
2025-11-04,1.4726020876921857
2025-11-05,1.4741241055433367
2025-11-06,1.4758238058333477
2025-11-07,1.4791268376405107
2025-11-10,1.4841961104858705
2025-11-11,1.4836782365606433
2025-11-12,1.4811070223838887
2025-11-13,1.4845229967387086
2025-11-14,1.4806777138257532
2025-11-17,1.4772793757665499
2025-11-18,1.4729415427141397
2025-11-19,1.4751037758747774
2025-11-20,1.4703702116082842
2025-11-21,1.4668454158664328
2025-11-24,1.4651977858306657
2025-11-25,1.4652608087732304
2025-11-26,1.464304393975206
2025-11-27,1.464516116781213
2025-11-28,1.4650411089318942
2025-12-01,1.4671454452037067
2025-12-02,1.4657532038668293
2025-12-03,1.4649400381878752
2025-12-04,1.4645812346837486
2025-12-05,1.4631968551921308
2025-12-08,1.4631436680351682
2025-12-09,1.4611011826048501
2025-12-10,1.4603397388072996
2025-12-11,1.4567850042603812
2025-12-12,1.458942694710181
2025-12-15,1.4579529953538535
2025-12-16,1.456685307112778
2025-12-17,1.4591812358005565
2025-12-18,1.4587463170090995
2025-12-19,1.4609671194732772
2025-12-22,1.4609628502533814
2025-12-23,1.4593549937734978
2025-12-24,1.4603763101008154
2025-12-25,1.4624067725931422
2025-12-26,1.4645081352475895
2025-12-29,1.4632310783031661
2025-12-30,1.462216570804774
2025-12-31,1.4636044689009384
2026-01-05,1.4651779573919756
2026-01-06,1.4772403216951373
2026-01-07,1.4724570188820845
2026-01-08,1.4724843071066216
2026-01-09,1.475776279065521
2026-01-12,1.4816889506488364
2026-01-13,1.4731362595446629
2026-01-14,1.4680449919988066
2026-01-15,1.4675997564797734
2026-01-16,1.4633664941633409
2026-01-19,1.4672769234239214
2026-01-20,1.4716605438293544
2026-01-21,1.47047164863127
2026-01-22,1.4721660049366794
2026-01-23,1.4689527717221236
2026-01-26,1.4670539263011226
2026-01-27,1.4674389600693263
2026-01-28,1.4696006710037193
2026-01-29,1.473314931396135
2026-01-30,1.4658109288043983
2026-02-02,1.456334086344831
2026-02-03,1.4603624019076107
2026-02-04,1.4668431287987544
2026-02-05,1.4651496269710003
2026-02-06,1.461512925960985
2026-02-09,1.4658342264391258
2026-02-10,1.464387603808183
2026-02-11,1.4631809619574714
2026-02-12,1.4634575925046758
2026-02-13,1.4581090495653146
2026-02-24,1.4605755756985261
2026-02-25,1.4643022237800345
2026-02-26,1.4610620543930128
2026-02-27,1.4614705303817344
2026-03-02,1.4676167866114767
2026-03-03,1.466317270277015
2026-03-04,1.4644096873452297
2026-03-05,1.4634533947729382
2026-03-06,1.466701934656342
2026-03-09,1.4673188491192228
2026-03-10,1.4659005634463549
2026-03-11,1.469719852480165
2026-03-12,1.4715617554537124
2026-03-13,1.4703893593612731
2026-03-16,1.4702419019385478
2026-03-17,1.4679645851373402
2026-03-18,1.4656031859314576
2026-03-19,1.4655699933294606
2026-03-20,1.4653551529017543
2026-03-23,1.460162955786777
2026-03-24,1.4599424243141743
2026-03-25,1.4597280043132297
2026-03-26,1.4592366881532748
2026-03-27,1.4598481584445608
2026-03-30,1.4593933188129862
2026-03-31,1.4576776077424254
2026-04-01,1.4567911885381506
2026-04-02,1.4563295707198844
2026-04-03,1.4534286983782443
2026-04-07,1.4528058940770292
2026-04-08,1.45374003715293
2026-04-09,1.4535464619669782
2026-04-10,1.454032572059761
2026-04-13,1.453115703386593
2026-04-14,1.454623779653386
2026-04-15,1.4547175998669386
2026-04-16,1.456823363793572
2026-04-17,1.4530323898471502
2026-04-20,1.4563012228669276
2026-04-21,1.4567437121417348
2026-04-22,1.4553259649628838
2026-04-23,1.4541537155195456
2026-04-24,1.45266876807729
2026-04-27,1.4536017927894895
2026-04-28,1.45282886906293
2026-04-29,1.4545860918692262
2026-04-30,1.4538616151715327
2026-05-06,1.4582032652320378
2026-05-07,1.4556070990249603
2026-05-08,1.4546070664201411
2026-05-11,1.4610653102044266
2026-05-12,1.4580195561773959
2026-05-13,1.4580073115686354
2026-05-14,1.4477654835155216
2026-05-15,1.4433338460181757
2026-05-18,1.4395768694644733
2026-05-19,1.4414590903323532
2026-05-20,1.436941580944997
2026-05-21,1.4326661047832119
2026-05-22,1.4325045708286581
2026-05-25,1.4334060161969906
2026-05-26,1.4331473352827477
2026-05-27,1.4326264329603562
2026-05-28,1.4319851060132156
2026-05-29,1.431058868054599
2026-06-01,1.431239854352652
2026-06-02,1.4310089316340522
2026-06-03,1.430957299152003
2026-06-04,1.4299437961141257
2026-06-05,1.428689547466596
2026-06-08,1.4285065659299718
2026-06-09,1.4287198407204518
2026-06-10,1.4287111409397935
2026-06-11,1.4291525836366399
2026-06-12,1.429313057986527
2026-06-15,1.4267684673175518
2026-06-16,1.4257839528132943
2026-06-17,1.4249581580102517
2026-06-18,1.4216671845198303
2026-06-22,1.4237559435452598
2026-06-23,1.4220037390138587
2026-06-24,1.4229596924003536
2026-06-25,1.4250454585437897
2026-06-26,1.4184260178432786
2026-06-29,1.417464356085043
2026-06-30,1.418796075094039
2026-07-01,1.4198157432379457
2026-07-02,1.4172002129083263
2026-07-03,1.4185030055958445
2026-07-06,1.4203010261346123
2026-07-07,1.417726685035948
2026-07-08,1.4152552818115989
2026-07-09,1.4185244390017029
2026-07-10,1.4180967251800152
2026-07-13,1.4169477102438082
2026-07-14,1.4180974359011171
2026-07-15,1.4235602564427272
2026-07-16,1.4233591436325301
2026-07-17,1.417036765285207
2026-07-20,1.4269115334395142
2026-07-21,1.4210075691345163
2026-07-22,1.4282486940214094
2026-07-23,1.4278342128868722
2026-07-24,1.4173007608542967
2026-07-27,1.418038214222693
2026-07-28,1.4253222302601265
2026-07-29,1.4340231034180893
2026-07-30,1.4491509895389634
2026-07-31,1.4435181851822054
2026-08-03,1.4415256136504788
2026-08-04,1.4249279730189217
2026-08-05,1.422171223782022
2026-08-06,1.4182202806593
2026-08-07,1.4175983594776391
2026-08-10,1.423076096744162
2026-08-11,1.413513372395109
2026-08-12,1.416860026152806
2026-08-13,1.4134688870277068
2026-08-14,1.4113232480934013
2026-08-17,1.4116983694777512
2026-08-18,1.41113786441832
2026-08-19,1.4082508707459946
2026-08-20,1.4097172865141048
2026-08-21,1.40893108583915
2026-08-24,1.4089502890620538
2026-08-25,1.4082905868710087
2026-08-26,1.4078300594080668
2026-08-27,1.4094246059062945
2026-08-28,1.4109461804971888
2026-08-31,1.4106776036045499
2026-09-01,1.4131233003312134
2026-09-02,1.4081953843674426
2026-09-03,1.4095194470648729
2026-09-04,1.4147908055524903
2026-09-07,1.4093722730914768
2026-09-08,1.4121202079498532
2026-09-09,1.4130645650342664
2026-09-10,1.4106237628443379
2026-09-11,1.4073160838718237
2026-09-14,1.4050892204236285
2026-09-15,1.4023498997273147
2026-09-16,1.4010291805675823
2026-09-17,1.4018368656400357
2026-09-18,1.4012060437248661
2026-09-21,1.4036332220639691
2026-09-22,1.4021014472281723
2026-09-23,1.4019335704949825
2026-09-24,1.4007691946661247
2026-09-28,1.4009883128397778
2026-09-29,1.4022017688821427
