date,equity
2018-10-16,1.0
2018-10-17,1.0
2018-10-18,1.0
2018-10-19,1.0
2018-10-22,1.0
2018-10-23,1.0
2018-10-24,1.0
2018-10-25,1.0
2018-10-26,1.0
2018-10-29,1.0
2018-10-30,1.0
2018-10-31,1.0
2018-11-01,1.0
2018-11-02,1.0
2018-11-05,1.0
2018-11-06,1.0
2018-11-07,1.0
2018-11-08,1.0
2018-11-09,1.0
2018-11-12,1.0
2018-11-13,0.9999345040127142
2018-11-14,0.9989397879046906
2018-11-15,1.001910211137535
2018-11-16,1.0055420083132989
2018-11-19,1.0083129467691458
2018-11-20,0.9966510547038486
2018-11-21,0.9968091197895306
2018-11-22,0.996755997075055
2018-11-23,0.9863170301771824
2018-11-26,0.9870413984167008
2018-11-27,0.9883876617183229
2018-11-28,0.9927876976991877
2018-11-29,0.9902305586062998
2018-11-30,0.990039824021565
2018-12-03,1.0207908017923721
2018-12-04,1.0192818085722002
2018-12-05,1.0232670717763774
2018-12-06,1.0067810590370883
2018-12-07,1.0066840125504417
2018-12-10,1.0033474449044872
2018-12-11,1.0024586900027999
2018-12-12,1.003809219207484
2018-12-13,1.0098280403414757
2018-12-14,0.997053864806048
2018-12-17,0.9940987356700006
2018-12-18,0.9940528478172862
2018-12-19,0.9844665471968881
2018-12-20,0.9804204204611959
2018-12-21,0.97993288935958
2018-12-24,0.9798687597190903
2018-12-25,0.9791662974507898
2018-12-26,0.9801414043132731
2018-12-27,0.9803120305541916
2018-12-28,0.9808757671709716
2019-01-02,0.9782031952942023
2019-01-03,0.9786263317516638
2019-01-04,0.9779192617629178
2019-01-07,0.9776498499261873
2019-01-08,0.9780191130837866
2019-01-09,0.9785860378084961
2019-01-10,0.9769950225633014
2019-01-11,0.9784886999323372
2019-01-14,0.9759514160184761
2019-01-15,0.9829757254694358
2019-01-16,0.9830966624294027
2019-01-17,0.9806527175134886
2019-01-18,0.995282104290825
2019-01-21,0.9979168261071429
2019-01-22,0.9811164578387348
2019-01-23,0.9872378217201452
2019-01-24,0.9944598909876978
2019-01-25,1.0034075182457733
2019-01-28,1.0072981761980195
2019-01-29,1.0150669599661075
2019-01-30,1.0088649953920987
2019-01-31,1.027898675845712
2019-02-01,1.0427580922845148
2019-02-11,1.0646191377006422
2019-02-12,1.0726814963080316
2019-02-13,1.092861010003456
2019-02-14,1.1039163623680168
2019-02-15,1.0745742114028638
2019-02-18,1.1205075817314385
2019-02-19,1.1154120372139888
2019-02-20,1.1266739668596824
2019-02-21,1.1276746022717243
2019-02-22,1.1502848017343115
2019-02-25,1.2117524741854708
2019-02-26,1.1942517992268695
2019-02-27,1.180172316157964
2019-02-28,1.1894960216426371
2019-03-01,1.2219475362721686
2019-03-04,1.2388039034919565
2019-03-05,1.2441537261506779
2019-03-06,1.2444086809945285
2019-03-07,1.2109708800403223
2019-03-08,1.1665002401021005
2019-03-11,1.1845022986169114
2019-03-12,1.1860812533373655
2019-03-13,1.1759344061309647
2019-03-14,1.17077373847358
2019-03-15,1.1852420250418723
2019-03-18,1.2080163839312965
2019-03-19,1.201675798338035
2019-03-20,1.197777668632684
2019-03-21,1.1916785131717313
2019-03-22,1.1910589253624084
2019-03-25,1.1685303981888109
2019-03-26,1.165234503301397
2019-03-27,1.176835427172087
2019-03-28,1.1756089539304286
2019-03-29,1.1968307468127837
2019-04-01,1.2146646067248994
2019-04-02,1.2126815596356566
2019-04-03,1.2225593065227218
2019-04-04,1.2293047506025114
2019-04-08,1.2310278999165378
2019-04-09,1.2386271594897635
2019-04-10,1.2518092768086477
2019-04-11,1.222136219987108
2019-04-12,1.215897890348248
2019-04-15,1.2157196934274208
2019-04-16,1.240362167489488
2019-04-17,1.24767060655915
2019-04-18,1.2443596765358298
2019-04-19,1.2557157827649483
2019-04-22,1.2356111956920326
2019-04-23,1.2313345787952343
2019-04-24,1.234970148173089
2019-04-25,1.223545897191746
2019-04-26,1.2078811152808735
2019-04-29,1.2192497243913636
2019-04-30,1.2163573000235146
2019-05-06,1.1936760058219364
2019-05-07,1.1993703727271527
2019-05-08,1.1973130484765049
2019-05-09,1.1961579635642552
2019-05-10,1.2006706675743328
2019-05-13,1.1998813231833867
2019-05-14,1.1998964760724813
2019-05-15,1.2028358363380567
2019-05-16,1.2031713884938278
2019-05-17,1.1978110311511132
2019-05-20,1.1943078500986688
2019-05-21,1.1963066736935961
2019-05-22,1.196391842236356
2019-05-23,1.1930000896709474
2019-05-24,1.192212083987592
2019-05-27,1.1938917672413456
2019-05-28,1.1964908337996918
2019-05-29,1.1953470871407554
2019-05-30,1.1950076167351822
2019-05-31,1.1947047264310302
2019-06-03,1.1952724764617764
2019-06-04,1.1917929931521671
2019-06-05,1.1951874567989427
2019-06-06,1.1883583998238976
2019-06-10,1.1966679598642576
2019-06-11,1.2074942600141576
2019-06-12,1.2031984381554381
2019-06-13,1.1964709430075995
2019-06-14,1.1922538481692537
2019-06-17,1.1918848505602258
2019-06-18,1.1962799479887454
2019-06-19,1.2067207193275133
2019-06-20,1.2360172222078394
2019-06-21,1.2360021894453295
2019-06-24,1.2411630575133574
2019-06-25,1.229377262478669
2019-06-26,1.2329955724675652
2019-06-27,1.2543437505882056
2019-06-28,1.2543845183278504
2019-07-01,1.2933850988167346
2019-07-02,1.2999298286443526
2019-07-03,1.2836357869933
2019-07-04,1.2734709247957967
2019-07-05,1.2852099319942212
2019-07-08,1.2547227294715062
2019-07-09,1.2569345547152
2019-07-10,1.256877695056884
2019-07-11,1.2539056001492759
2019-07-12,1.2589282978201197
2019-07-15,1.262643669872721
2019-07-16,1.2521561528692884
2019-07-17,1.2528446398539494
2019-07-18,1.2455251404760148
2019-07-19,1.2502841898002723
2019-07-22,1.250913096520145
2019-07-23,1.2575817936386968
2019-07-24,1.2609850102786873
2019-07-25,1.2677297774138603
2019-07-26,1.2740844058670633
2019-07-29,1.2723043077745884
2019-07-30,1.2723824758818214
2019-07-31,1.2654472340065657
2019-08-01,1.2625608967488273
2019-08-02,1.2525121986754701
2019-08-05,1.2392379311541533
2019-08-06,1.2334718209213864
2019-08-07,1.2345118250083826
2019-08-08,1.2380872946770396
2019-08-09,1.2344010974969524
2019-08-12,1.2362529513463618
2019-08-13,1.2386241358466492
2019-08-14,1.2381803357398309
2019-08-15,1.2402231269909092
2019-08-16,1.2412536170211315
2019-08-19,1.247959872562929
2019-08-20,1.2502991302945439
2019-08-21,1.2479371334032014
2019-08-22,1.2504760674775262
2019-08-23,1.2565604981959444
2019-08-26,1.2484452330156486
2019-08-27,1.2622290851404925
2019-08-28,1.263341156905398
2019-08-29,1.2600285359867127
2019-08-30,1.2642506714227706
2019-09-02,1.2793792697899908
2019-09-03,1.2816346429688648
2019-09-04,1.2827878021285828
2019-09-05,1.2880910654805908
2019-09-06,1.29124454182477
2019-09-09,1.293958177117614
2019-09-10,1.2891527452273044
2019-09-11,1.2760518841743318
2019-09-12,1.2798487133272103
2019-09-16,1.2762334658466752
2019-09-17,1.2642324831463072
2019-09-18,1.2656922571913327
2019-09-19,1.2676128364260297
2019-09-20,1.2709159484186752
2019-09-23,1.2614016494176399
2019-09-24,1.2636099061460675
2019-09-25,1.260127478727431
2019-09-26,1.2560321074206138
2019-09-27,1.2583805574014628
2019-09-30,1.2537286025901497
2019-10-08,1.253458411549872
2019-10-09,1.251962249470451
2019-10-10,1.25304520359395
2019-10-11,1.2561249759254962
2019-10-14,1.2572973605597988
2019-10-15,1.2604459311260607
2019-10-16,1.2593275553616863
2019-10-17,1.2631778527312962
2019-10-18,1.2572473652112108
2019-10-21,1.259067014654746
2019-10-22,1.2618483835772671
2019-10-23,1.2597459750706816
2019-10-24,1.2595183509290753
2019-10-25,1.2678875817893165
2019-10-28,1.269105715637931
2019-10-29,1.2740874643000504
2019-10-30,1.2743663769949622
2019-10-31,1.2723129785393763
2019-11-01,1.2804006356628748
2019-11-04,1.2867242195108
2019-11-05,1.297345355829914
2019-11-06,1.2944404215123504
2019-11-07,1.2988647423902917
2019-11-08,1.3026085191078751
2019-11-11,1.2839254282613017
2019-11-12,1.283708055162733
2019-11-13,1.2873465356295257
2019-11-14,1.2838092444327387
2019-11-15,1.2802189562392037
2019-11-18,1.2826079740581373
2019-11-19,1.2905399465115721
2019-11-20,1.2821750597262183
2019-11-21,1.280066840926476
2019-11-22,1.273315829474744
2019-11-25,1.2776741553550437
2019-11-26,1.281850366277454
2019-11-27,1.279825672291088
2019-11-28,1.2795770435427194
2019-11-29,1.2747290861311436
2019-12-02,1.2805125044844439
2019-12-03,1.2842385493520596
2019-12-04,1.283050495332684
2019-12-05,1.2871675388202553
2019-12-06,1.2909504286071207
2019-12-09,1.2956711846692561
2019-12-10,1.2981168534197736
2019-12-11,1.2957061555246616
2019-12-12,1.291373032458881
2019-12-13,1.2982837535405232
2019-12-16,1.3000683741683332
2019-12-17,1.3072024327494782
2019-12-18,1.3013038199975842
2019-12-19,1.3005876371368261
2019-12-20,1.3012572350563323
2019-12-23,1.2925576258289657
2019-12-24,1.307088235427616
2019-12-25,1.313196423983388
2019-12-26,1.3171504061233168
2019-12-27,1.31482689884488
2019-12-30,1.332726609126848
2019-12-31,1.3302114683167474
2020-01-02,1.3490935459233035
2020-01-03,1.347837460325302
2020-01-06,1.3436790477184195
2020-01-07,1.3489508523199838
2020-01-08,1.3388303219364595
2020-01-09,1.358516831838443
2020-01-10,1.3564171143947428
2020-01-13,1.3710783618705205
2020-01-14,1.3688832404163287
2020-01-15,1.3657063096968354
2020-01-16,1.3606777855610617
2020-01-17,1.3690648515904442
2020-01-20,1.3723537744217342
2020-01-21,1.3524854216152746
2020-01-22,1.3588913154482072
2020-01-23,1.3417591630324135
2020-02-03,1.3201898366627727
2020-02-04,1.326899602221713
2020-02-05,1.3409721134163153
2020-02-06,1.3479837455256178
2020-02-07,1.345100870152585
2020-02-10,1.347688933606362
2020-02-11,1.3462057360529571
2020-02-12,1.3470406915703796
2020-02-13,1.3458648574553629
2020-02-14,1.3458441038041904
2020-02-17,1.356824353783739
2020-02-18,1.3582335825096672
2020-02-19,1.3576730216023334
2020-02-20,1.3661695260914035
2020-02-21,1.3709057046557112
2020-02-24,1.3706985825260967
2020-02-25,1.3772373775687181
2020-02-26,1.3541304670461036
2020-02-27,1.3555882267682104
2020-02-28,1.3380561199600713
2020-03-02,1.3533180540141503
2020-03-03,1.3531374164663583
2020-03-04,1.3533173590343073
2020-03-05,1.364492928572749
2020-03-06,1.3491716303742687
2020-03-09,1.3246016206559044
2020-03-10,1.3352090764848756
2020-03-11,1.3243099126770321
2020-03-12,1.311555181933998
2020-03-13,1.3052261109934515
2020-03-16,1.2939136867783787
2020-03-17,1.2939136867783787
2020-03-18,1.2939136867783787
2020-03-19,1.293887335192744
2020-03-20,1.2936039779984825
2020-03-23,1.2919463946921854
2020-03-24,1.2941511607331666
2020-03-25,1.2946112432277876
2020-03-26,1.2970959466502716
2020-03-27,1.295572894468307
2020-03-30,1.2955785809558642
2020-03-31,1.295594144915591
2020-04-01,1.293983533688664
2020-04-02,1.294138936526131
2020-04-03,1.295130762800768
2020-04-07,1.2972000695876915
2020-04-08,1.2962228359928656
2020-04-09,1.2958725830382853
2020-04-10,1.2922290229693478
2020-04-13,1.2925686140221853
2020-04-14,1.3000351072104428
2020-04-15,1.2950262675022217
2020-04-16,1.299071925850698
2020-04-17,1.3072354067976721
2020-04-20,1.313122385034588
2020-04-21,1.3021667349343913
2020-04-22,1.3109205534722987
2020-04-23,1.309904626829027
2020-04-24,1.3063694582149064
2020-04-27,1.3081294827303718
2020-04-28,1.3233495206419599
2020-04-29,1.3262113789914662
2020-04-30,1.334776836137049
2020-05-06,1.3366102422226342
2020-05-07,1.3339854139892715
2020-05-08,1.3424976255461785
2020-05-11,1.343626802980824
2020-05-12,1.3488149367566609
2020-05-13,1.3486836173722647
2020-05-14,1.3329414639325412
2020-05-15,1.3280556883821821
2020-05-18,1.3272499557942705
2020-05-19,1.3381193586573146
2020-05-20,1.3332042303021607
2020-05-21,1.3240937005610045
2020-05-22,1.2978691246874048
2020-05-25,1.3080106089629726
2020-05-26,1.3125333388329326
2020-05-27,1.324934486719328
2020-05-28,1.320379749128787
2020-05-29,1.325968347789548
2020-06-01,1.3379019533621552
2020-06-02,1.3335696224555946
2020-06-03,1.3367277525702317
2020-06-04,1.3227991495983469
2020-06-05,1.3286551700277465
2020-06-08,1.3467940124881244
2020-06-09,1.3698791212957795
2020-06-10,1.3614236958364763
2020-06-11,1.3455679899553288
2020-06-12,1.3386455889251545
2020-06-15,1.3239666054364696
2020-06-16,1.3328683352683197
2020-06-17,1.3338157359422422
2020-06-18,1.3389464442639893
2020-06-19,1.3523548025306904
2020-06-22,1.3593228369934474
2020-06-23,1.3710594289536269
2020-06-24,1.3863781118032337
2020-06-29,1.386799134912733
2020-06-30,1.4016004515292135
2020-07-01,1.4242028857529607
2020-07-02,1.4409159304009838
2020-07-03,1.4592505103120235
2020-07-06,1.5403812029138382
2020-07-07,1.5526958670734055
2020-07-08,1.5688773444021902
2020-07-09,1.6009237970563723
2020-07-10,1.5727491618308844
2020-07-13,1.6186790365476598
2020-07-14,1.6043657544568377
2020-07-15,1.6080716891654094
2020-07-16,1.5182670087734977
2020-07-17,1.5287452741548522
2020-07-20,1.5572647863995481
2020-07-21,1.5670327776357953
2020-07-22,1.5717847236578883
2020-07-23,1.5906041213442377
2020-07-24,1.5476549404596611
2020-07-27,1.556804084463028
2020-07-28,1.557004106551117
2020-07-29,1.5746599299168715
2020-07-30,1.5769001984875661
2020-07-31,1.5848095243018072
2020-08-03,1.5942444489581649
2020-08-04,1.5928059671845078
2020-08-05,1.5980493771557995
2020-08-06,1.5940612492114021
2020-08-07,1.5900824558746993
2020-08-10,1.5826786148865242
2020-08-11,1.5719512746731334
2020-08-12,1.5613952374411135
2020-08-13,1.5618371789308991
2020-08-14,1.5638661062424086
2020-08-17,1.5786448826209367
2020-08-18,1.5799521478728158
2020-08-19,1.5735285480176138
2020-08-20,1.5633862057245569
2020-08-21,1.5626376872733763
2020-08-24,1.5753106095781293
2020-08-25,1.5780282717333614
2020-08-26,1.5716170645307437
2020-08-27,1.575208998624726
2020-08-28,1.588219482891534
2020-08-31,1.5928720475527172
2020-09-01,1.598886522963397
2020-09-02,1.5950530035495762
2020-09-03,1.5952167734234906
2020-09-04,1.5858228434129096
2020-09-07,1.565820251558464
2020-09-08,1.5714961070978073
2020-09-09,1.5550373817891057
2020-09-10,1.5600983988927704
2020-09-11,1.5631879576764869
2020-09-14,1.5684210386228177
2020-09-15,1.5711969704078501
2020-09-16,1.5757738194396007
2020-09-17,1.573693657788447
2020-09-18,1.5842263779393155
2020-09-21,1.573755015796927
2020-09-22,1.5622748333073695
2020-09-23,1.5614852400985493
2020-09-24,1.546665401509943
2020-09-25,1.548980739995034
2020-09-28,1.5575122165562543
2020-09-29,1.5547583925326032
2020-09-30,1.5569738331113938
2020-10-09,1.5652302761191403
2020-10-12,1.5867911616033346
2020-10-13,1.5989988481772441
2020-10-14,1.592788539227649
2020-10-15,1.5915972757092003
2020-10-16,1.5941168634091638
2020-10-19,1.5789945983951488
2020-10-20,1.5965796883853998
2020-10-21,1.592255012581101
2020-10-22,1.5942296659166713
2020-10-23,1.5692174367781604
2020-10-26,1.5750045084580349
2020-10-27,1.5764945241028099
2020-10-28,1.5874909335276701
2020-10-29,1.5931430018621873
2020-10-30,1.5852839096780926
2020-11-02,1.6079460550820004
2020-11-03,1.6185253321842727
2020-11-04,1.6282800256943055
2020-11-05,1.6391739985179314
2020-11-06,1.6450665556802564
2020-11-09,1.655532645559465
2020-11-10,1.6448986917489923
2020-11-11,1.6284822416475175
2020-11-12,1.6344534221921103
2020-11-13,1.6190386267137522
2020-11-16,1.6358638612102108
2020-11-17,1.6308311431594174
2020-11-18,1.6256407042907497
2020-11-19,1.6277954573386761
2020-11-20,1.6425393103825556
2020-11-23,1.661801617111417
2020-11-24,1.648758644040175
2020-11-25,1.6431756120523793
2020-11-26,1.6432559432528253
2020-11-27,1.6585201448366587
2020-11-30,1.657077674387537
2020-12-01,1.6706544859975718
2020-12-02,1.6687837050007939
2020-12-03,1.6525158470259884
2020-12-04,1.6603364603694355
2020-12-07,1.6449973046120465
2020-12-08,1.6390875323427214
2020-12-09,1.6302391789301056
2020-12-10,1.6285149847864138
2020-12-11,1.6275036178334767
2020-12-14,1.6156154522249586
2020-12-15,1.6237521304887301
2020-12-16,1.6290557184720982
2020-12-17,1.6362172328921183
2020-12-18,1.6379439009715115
2020-12-21,1.657844310208446
2020-12-22,1.6501490900648614
2020-12-23,1.6631653273718654
2020-12-24,1.661061605945371
2020-12-25,1.6734271365074178
2020-12-28,1.6793616737471992
2020-12-29,1.6602069700848217
2020-12-30,1.685130051877714
2020-12-31,1.7008274825388074
2021-01-04,1.7345617784520246
2021-01-05,1.7676099120930706
2021-01-06,1.7781061116993186
2021-01-07,1.8173781071674624
2021-01-08,1.8072607944384864
2021-01-11,1.7976363008750262
2021-01-12,1.84399497105054
2021-01-13,1.8336404879661194
2021-01-14,1.794710475376983
2021-01-15,1.7978914681537799
2021-01-18,1.805318305198335
2021-01-19,1.7812249493219983
2021-01-20,1.783177494828892
2021-01-21,1.7993830625420764
2021-01-22,1.7943701081918557
2021-01-25,1.802923402828828
2021-01-26,1.7772918655417664
2021-01-27,1.783936077832211
2021-01-28,1.7606885476540046
2021-01-29,1.7588383843232465
2021-02-01,1.7609598413793714
2021-02-02,1.7652748086813348
2021-02-03,1.7627068211898231
2021-02-04,1.7648386860900378
2021-02-05,1.7751793102386575
2021-02-08,1.7843467913171573
2021-02-09,1.7948148595992297
2021-02-10,1.8172096849841113
2021-02-18,1.8073338487922435
2021-02-19,1.7967787394349368
2021-02-22,1.7716876872979614
2021-02-23,1.7738923941808395
2021-02-24,1.7462378137454964
2021-02-25,1.752294669206543
2021-02-26,1.7325923478519791
2021-03-01,1.7364304597125235
2021-03-02,1.7269688605944977
2021-03-03,1.737779127704122
2021-03-04,1.731933800964784
2021-03-05,1.7328426880674939
2021-03-08,1.7338743651590354
2021-03-09,1.7313238051558586
2021-03-10,1.7254930307356493
2021-03-11,1.7314134030557666
2021-03-12,1.7340691744708931
2021-03-15,1.7386041887326453
2021-03-16,1.7387295856204126
2021-03-17,1.7315991100182997
2021-03-18,1.7304772685200995
2021-03-19,1.718622985250366
2021-03-22,1.7220090800056709
2021-03-23,1.7163336837242387
2021-03-24,1.7122834860616105
2021-03-25,1.7130972410730538
2021-03-26,1.7126066458201268
2021-03-29,1.715560999259899
2021-03-30,1.7181298481241234
2021-03-31,1.7148913779378963
2021-04-01,1.7176839703449747
2021-04-02,1.7214208888145994
2021-04-06,1.7145305455789897
2021-04-07,1.7117447294986128
2021-04-08,1.7149969060904415
2021-04-09,1.7031735271006234
2021-04-12,1.6981493184226408
2021-04-13,1.6935453121571609
2021-04-14,1.6974063154778822
2021-04-15,1.6963660030138021
2021-04-16,1.7005480994591882
2021-04-19,1.7136236730521697
2021-04-20,1.715548142233482
2021-04-21,1.719587451597771
2021-04-22,1.7193981977609758
2021-04-23,1.7303880968951733
2021-04-26,1.7274009078790509
2021-04-27,1.7300834657313704
2021-04-28,1.7455650448713702
2021-04-29,1.7544242802674828
2021-04-30,1.7572341354404815
2021-05-06,1.7445773081718787
2021-05-07,1.72910649862944
2021-05-10,1.7400602546156256
2021-05-11,1.7401270430569917
2021-05-12,1.7433371586854092
2021-05-13,1.7370124266746445
2021-05-14,1.7466872403427283
2021-05-17,1.7612811454003252
2021-05-18,1.7592733113697303
2021-05-19,1.758517549535243
2021-05-20,1.7528198487294082
2021-05-21,1.7452998285492451
2021-05-24,1.7549640787984424
2021-05-25,1.7742209290655426
2021-05-26,1.776085619161952
2021-05-27,1.7739513631695938
2021-05-28,1.7774866904578208
2021-05-31,1.779564255284068
2021-06-01,1.7800946879172717
2021-06-02,1.772650064290865
2021-06-03,1.7643371596230473
2021-06-04,1.7723998305392958
2021-06-07,1.7654370575144598
2021-06-08,1.7652402373560006
2021-06-09,1.7655110602366941
2021-06-10,1.7746974101020356
2021-06-11,1.7733829449472
2021-06-15,1.7700550636882435
2021-06-16,1.7574927439142103
2021-06-17,1.7632918725684987
2021-06-18,1.7647617631636459
2021-06-21,1.759880032931305
2021-06-22,1.7605346349598445
2021-06-23,1.7605605043467647
2021-06-24,1.7600436503186552
2021-06-25,1.7630885733141992
2021-06-28,1.7667935523651248
2021-06-29,1.7633387675749406
2021-06-30,1.7686186435526308
2021-07-01,1.763226339266692
2021-07-02,1.7439364493658784
2021-07-05,1.7459629010532935
2021-07-06,1.7378652818147577
2021-07-07,1.7443780964155617
2021-07-08,1.742951603056483
2021-07-09,1.7439737877527242
2021-07-12,1.7446040329897292
2021-07-13,1.738762016188697
2021-07-14,1.7316177725851958
2021-07-15,1.737386437162808
2021-07-16,1.731407504900992
2021-07-19,1.7322588645648425
2021-07-20,1.7323678800138056
2021-07-21,1.7450045645313281
2021-07-22,1.7414223716371215
2021-07-23,1.7377820419339274
2021-07-26,1.7215620994208738
2021-07-27,1.7071741186203386
2021-07-28,1.704602647853608
2021-07-29,1.7101547620451076
2021-07-30,1.7152960441713165
2021-08-02,1.7205819363133825
2021-08-03,1.7190831710523338
2021-08-04,1.7259657718653219
2021-08-05,1.7239018492533311
2021-08-06,1.7182212672411652
2021-08-09,1.715972717034878
2021-08-10,1.715293107967983
2021-08-11,1.7084118975021216
2021-08-12,1.7099300534895525
2021-08-13,1.7049289048845755
2021-08-16,1.7074220506068127
2021-08-17,1.6963140974714954
2021-08-18,1.706723278626266
2021-08-19,1.697718846914215
2021-08-20,1.694274622750477
2021-08-23,1.6940204090340707
2021-08-24,1.6943892853640241
2021-08-25,1.6970051227916017
2021-08-26,1.695460263213577
2021-08-27,1.6989890668181424
2021-08-30,1.7022390606182691
2021-08-31,1.7171902119894695
2021-09-01,1.7182126552224535
2021-09-02,1.7240328011539867
2021-09-03,1.719034820743489
2021-09-06,1.7245646515723658
2021-09-07,1.7305613798617583
2021-09-08,1.7259233143918467
2021-09-09,1.7352098912311529
2021-09-10,1.740081725182588
2021-09-13,1.7338192724484671
2021-09-14,1.7098221281996135
2021-09-15,1.7000527408589228
2021-09-16,1.694701337724021
2021-09-17,1.6956048164322515
2021-09-22,1.7054234671599984
2021-09-23,1.701053959750178
2021-09-24,1.6998627640956723
2021-09-27,1.700067128346883
2021-09-28,1.7091095968512144
2021-09-29,1.701391769554653
2021-09-30,1.7060124966375239
2021-10-08,1.7159809352098943
2021-10-11,1.715050173183092
2021-10-12,1.7083070934940474
2021-10-13,1.7053585036924315
2021-10-14,1.6991387430544158
2021-10-15,1.6982677970365512
2021-10-18,1.681537695744896
2021-10-19,1.6870638799379019
2021-10-20,1.6827731602961609
2021-10-21,1.6866266781035684
2021-10-22,1.6924741644366466
2021-10-25,1.6938936228771162
2021-10-26,1.6903497090952582
2021-10-27,1.6826994656149985
2021-10-28,1.6878253340016014
2021-10-29,1.700012935868796
2021-11-01,1.7003802976067557
2021-11-02,1.692261325406126
2021-11-03,1.683520351887902
2021-11-04,1.6893361994607619
2021-11-05,1.6864818955579692
2021-11-08,1.6798093432478043
2021-11-09,1.6749615715393085
2021-11-10,1.6659611430765793
2021-11-11,1.6731308429956837
2021-11-12,1.670084227036232
2021-11-15,1.6656395178289793
2021-11-16,1.6620943253843534
2021-11-17,1.6586284114777565
2021-11-18,1.651373906958944
2021-11-19,1.659221507568093
2021-11-22,1.656370622906172
2021-11-23,1.654391126291464
2021-11-24,1.653609796441918
2021-11-25,1.6498005894171002
2021-11-26,1.6414836803425104
2021-11-29,1.6408077866154906
2021-11-30,1.6397063726518684
2021-12-01,1.641800642953951
2021-12-02,1.645949520299335
2021-12-03,1.654870322575432
2021-12-06,1.6506133528738571
2021-12-07,1.6515125967689956
2021-12-08,1.6591897362443437
2021-12-09,1.6703975164809801
2021-12-10,1.6615198954356025
2021-12-13,1.670673819335726
2021-12-14,1.6563739484953643
2021-12-15,1.6481971045899437
2021-12-16,1.6604400585181807
2021-12-17,1.6424471567272338
2021-12-20,1.6365648181778336
2021-12-21,1.648468177437944
2021-12-22,1.6469918959951033
2021-12-23,1.6552915150153094
2021-12-24,1.6578085408475296
2021-12-27,1.6551934300605182
2021-12-28,1.6565388638700838
2021-12-29,1.6462751138531293
2021-12-30,1.6496628185492002
2021-12-31,1.6513153146980317
2022-01-04,1.6503257676858842
2022-01-05,1.6471315229945296
2022-01-06,1.6381988170730337
2022-01-07,1.6558653584721386
2022-01-10,1.6596215030561052
2022-01-11,1.6537505918229867
2022-01-12,1.6482578262140082
2022-01-13,1.6390920828749334
2022-01-14,1.62082143749188
2022-01-17,1.6201891374318103
2022-01-18,1.6322100617006183
2022-01-19,1.6350808175838698
2022-01-20,1.6423749024494696
2022-01-21,1.636908163235779
2022-01-24,1.6281376911273207
2022-01-25,1.616386347284852
2022-01-26,1.6180122920316096
2022-01-27,1.6090547868384935
2022-01-28,1.5987170318604258
2022-02-07,1.6145666106852732
2022-02-08,1.6218072715686067
2022-02-09,1.6270833022919278
2022-02-10,1.630408963769627
2022-02-11,1.6350284988234198
2022-02-14,1.6238235551822084
2022-02-15,1.6152947308151084
2022-02-16,1.6189212037582272
2022-02-17,1.620191130104532
2022-02-18,1.629260900936455
2022-02-21,1.6254685699027813
2022-02-22,1.6182465666031713
2022-02-23,1.6128768841981083
2022-02-24,1.6075532210748362
2022-02-25,1.6050689056243652
2022-02-28,1.607405327324075
2022-03-01,1.6111015390528087
2022-03-02,1.6134994877568605
2022-03-03,1.6145400615620498
2022-03-04,1.6124093527910082
2022-03-07,1.6094405199305875
2022-03-08,1.5999203782643778
2022-03-09,1.6001927117384467
2022-03-10,1.6005791365286994
2022-03-11,1.6011598526340143
2022-03-14,1.5966017960484116
2022-03-15,1.5814757793037186
2022-03-16,1.5872250439986795
2022-03-17,1.590528181578171
2022-03-18,1.5916489357022638
2022-03-21,1.598105725104655
2022-03-22,1.5959919208960849
2022-03-23,1.5924520830896545
2022-03-24,1.5929382104776177
2022-03-25,1.5894707167070379
2022-03-28,1.5894900964595235
2022-03-29,1.5925183884637495
2022-03-30,1.5931809123684768
2022-03-31,1.5933046258406849
2022-04-01,1.595024695823008
2022-04-06,1.5969772977544303
2022-04-07,1.5861352471246606
2022-04-08,1.5912477327011403
2022-04-11,1.5746183500258752
2022-04-12,1.5750133193185871
2022-04-13,1.5767514838528962
2022-04-14,1.588575122801304
2022-04-15,1.589519107607456
2022-04-18,1.5724243481515943
2022-04-19,1.565447549479486
2022-04-20,1.549895543459823
2022-04-21,1.5445290790019455
2022-04-22,1.5482212222094307
2022-04-25,1.5318868295808454
2022-04-26,1.5324759037174465
2022-04-27,1.5349751421914868
2022-04-28,1.5349925243420108
2022-04-29,1.5481582838149224
2022-05-05,1.5405739356354178
2022-05-06,1.5278626828478812
2022-05-09,1.5225886792253873
2022-05-10,1.527574148030334
2022-05-11,1.5290065987387917
2022-05-12,1.528700171852439
2022-05-13,1.5344265042680034
2022-05-16,1.5321895169955737
2022-05-17,1.5361479617098894
2022-05-18,1.5340302644841544
2022-05-19,1.537442828415912
2022-05-20,1.543844091925817
2022-05-23,1.5385206915242098
2022-05-24,1.5289384063680604
2022-05-25,1.532167668843929
2022-05-26,1.5337479064323796
2022-05-27,1.5342409265789214
2022-05-30,1.5352387989215797
2022-05-31,1.547677434258768
2022-06-01,1.5425342734309286
2022-06-02,1.5472973925795312
2022-06-06,1.5660198729267631
2022-06-07,1.5681571513882684
2022-06-08,1.5824109620919362
2022-06-09,1.565641347356613
2022-06-10,1.5831901637290415
2022-06-13,1.5644633017530698
2022-06-14,1.5748868200061505
2022-06-15,1.5849309187727796
2022-06-16,1.5771302635137867
2022-06-17,1.587358958037354
2022-06-20,1.5925544095159387
2022-06-21,1.5954028720647029
2022-06-22,1.577926642199914
2022-06-23,1.5956316885935786
2022-06-24,1.6172559225951517
2022-06-27,1.632863680796807
2022-06-28,1.6451188721170025
2022-06-29,1.6230429958340533
2022-06-30,1.6472422835323208
2022-07-01,1.6410314149787713
2022-07-04,1.6636201322327888
2022-07-05,1.6609676056962508
2022-07-06,1.6333979768539935
2022-07-07,1.6354129964914412
2022-07-08,1.6358938480547744
2022-07-11,1.623207328400484
2022-07-12,1.624453342809678
2022-07-13,1.618896504344498
2022-07-14,1.617360763663236
2022-07-15,1.6088122075740343
2022-07-18,1.6101533808123754
2022-07-19,1.6085528448316664
2022-07-20,1.6069917915359473
2022-07-21,1.6066221649880617
2022-07-22,1.6068501268843334
2022-07-25,1.6075503447060873
2022-07-26,1.6045978603062698
2022-07-27,1.6028202529068964
2022-07-28,1.6008259065831527
2022-07-29,1.6000607967659013
2022-08-01,1.5987241298454187
2022-08-02,1.5966487800816065
2022-08-03,1.5939076580386293
2022-08-04,1.5958673863378416
2022-08-05,1.5958055224846879
2022-08-08,1.5969877532966859
2022-08-09,1.5968103284772028
2022-08-10,1.595218204441421
2022-08-11,1.59971455123239
2022-08-12,1.5997332003035847
2022-08-15,1.5942798417624187
2022-08-16,1.5935363707221186
2022-08-17,1.5973183606140902
2022-08-18,1.5902429510212208
2022-08-19,1.5930034749308215
2022-08-22,1.599623425055841
2022-08-23,1.5957403898975406
2022-08-24,1.5883524189679752
2022-08-25,1.59521776202582
2022-08-26,1.5922691697727374
2022-08-29,1.589757270383667
2022-08-30,1.586965229214017
2022-08-31,1.587720305510873
2022-09-01,1.584733142094115
2022-09-02,1.5798832424382654
2022-09-05,1.5852183017664427
2022-09-06,1.5890352307826103
2022-09-07,1.583440480608331
2022-09-08,1.5866902959209674
2022-09-09,1.6017534734086074
2022-09-13,1.6037970555297976
2022-09-14,1.5984190692229563
2022-09-15,1.6031943485057814
2022-09-16,1.58086991982675
2022-09-19,1.5838282342375314
2022-09-20,1.5763308895891261
2022-09-21,1.571343932267728
2022-09-22,1.5665066567923758
2022-09-23,1.5661269932305328
2022-09-26,1.564267494481599
2022-09-27,1.5673457800715354
2022-09-28,1.5646904865841986
2022-09-29,1.561961348479461
2022-09-30,1.5610188945406116
2022-10-10,1.5541868360669897
2022-10-11,1.5538558942158152
2022-10-12,1.5531538841292007
2022-10-13,1.5526223421143495
2022-10-14,1.5544315711758956
2022-10-17,1.5560193216711027
2022-10-18,1.5556306127026607
2022-10-19,1.5528749607851329
2022-10-20,1.5539725548070182
2022-10-21,1.5551375489588872
2022-10-24,1.5512267444025982
2022-10-25,1.5475761708151503
2022-10-26,1.5492496475500872
2022-10-27,1.5491826998960048
2022-10-28,1.5466037672268433
2022-10-31,1.5507876613112868
2022-11-01,1.5533534038584402
2022-11-02,1.5562580960947665
2022-11-03,1.5534530778074571
2022-11-04,1.5612346784790765
2022-11-07,1.5695570904151732
2022-11-08,1.566117554758403
2022-11-09,1.5651442556544577
2022-11-10,1.559275217691422
2022-11-11,1.5732219262033602
2022-11-14,1.5765673522904495
2022-11-15,1.5918767558300115
2022-11-16,1.5831008114777096
2022-11-17,1.5767565744960004
2022-11-18,1.5741199299935156
2022-11-21,1.562428726500031
2022-11-22,1.5634453209633359
2022-11-23,1.5594434099591974
2022-11-24,1.5561202927820488
2022-11-25,1.563918079381428
2022-11-28,1.5452420572194365
2022-11-29,1.571618603534914
2022-11-30,1.5697698721960618
2022-12-01,1.5770514252874088
2022-12-02,1.5637874527329836
2022-12-05,1.58892599851528
2022-12-06,1.5935112291022924
2022-12-07,1.5821194287148543
2022-12-08,1.5821756506476712
2022-12-09,1.607994937820672
2022-12-12,1.5864932010872892
2022-12-13,1.5878352148881285
2022-12-14,1.5956808489048773
2022-12-15,1.5860370766519074
2022-12-16,1.5992296294876858
2022-12-19,1.5754257436734969
2022-12-20,1.5562170657384438
2022-12-21,1.5585451455185648
2022-12-22,1.5589953669553795
2022-12-23,1.5594770733415502
2022-12-26,1.5544859312086272
2022-12-27,1.5592100081522944
2022-12-28,1.5585449173251544
2022-12-29,1.5555462790941532
2022-12-30,1.5565717485826884
2023-01-03,1.555532473317111
2023-01-04,1.5576038403515389
2023-01-05,1.5632782600540187
2023-01-06,1.5612433901252734
2023-01-09,1.5633193505477472
2023-01-10,1.5649690605831839
2023-01-11,1.5649266866727058
2023-01-12,1.56324637693092
2023-01-13,1.5810689062373506
2023-01-16,1.59419237224145
2023-01-17,1.5887244992231766
2023-01-18,1.582712956880578
2023-01-19,1.5949365486794398
2023-01-20,1.5992572826399385
2023-01-30,1.5979390000072673
2023-01-31,1.583714786530187
2023-02-01,1.598366544547152
2023-02-02,1.58922318355906
2023-02-03,1.5760997665639946
2023-02-06,1.5588601382812297
2023-02-07,1.5584844718028943
2023-02-08,1.557855921188146
2023-02-09,1.5624649658064547
2023-02-10,1.5583316020619875
2023-02-13,1.5620186818518658
2023-02-14,1.5642012498724083
2023-02-15,1.5624021147593508
2023-02-16,1.5606559785004597
2023-02-17,1.5585399152559465
2023-02-20,1.5688421816050793
2023-02-21,1.5717648530680284
2023-02-22,1.5692322145854252
2023-02-23,1.5709514868965966
2023-02-24,1.5635773233362225
2023-02-27,1.56065155681619
2023-02-28,1.5649415864952023
2023-03-01,1.5755852041312486
2023-03-02,1.5760593799868259
2023-03-03,1.5808726931863002
2023-03-06,1.5750064153141898
2023-03-07,1.5682956692854801
2023-03-08,1.5668738686804518
2023-03-09,1.565313965089391
2023-03-10,1.557950239699109
2023-03-13,1.5704782483240216
2023-03-14,1.5676196751674936
2023-03-15,1.5718195231296328
2023-03-16,1.567108532111713
2023-03-17,1.5748004973706378
2023-03-20,1.5738757008731346
2023-03-21,1.5723905347941598
2023-03-22,1.5757591685015608
2023-03-23,1.5789204076044134
2023-03-24,1.5734432502861966
2023-03-27,1.565890940858505
2023-03-28,1.5642026700855707
2023-03-29,1.5659322537620322
2023-03-30,1.5665624321869556
2023-03-31,1.5670094425936254
2023-04-03,1.5638039153803527
2023-04-04,1.570242467297659
2023-04-06,1.5728587450496805
2023-04-07,1.5775782573089105
2023-04-10,1.5796378100603896
2023-04-11,1.5846745659753432
2023-04-12,1.5894989975727276
2023-04-13,1.578966761184969
2023-04-14,1.5843640463217616
2023-04-17,1.596889699449261
2023-04-18,1.5999079241817629
2023-04-19,1.589893702452531
2023-04-20,1.586890870531114
2023-04-21,1.5705774139800401
2023-04-24,1.566801288859873
2023-04-25,1.564413834661779
2023-04-26,1.5617963661058236
2023-04-27,1.5668520398341619
2023-04-28,1.5676357630417375
2023-05-04,1.5669235792625462
2023-05-05,1.5610644788313628
2023-05-08,1.5734261813363237
2023-05-09,1.5674778251648824
2023-05-10,1.564893748381653
2023-05-11,1.566280268970776
2023-05-12,1.56262699312396
2023-05-15,1.5675417775325975
2023-05-16,1.5666888710663984
2023-05-17,1.5637508327029286
2023-05-18,1.5621254890223402
2023-05-19,1.5586047159514063
2023-05-22,1.5620621475007797
2023-05-23,1.557785987077014
2023-05-24,1.555057959354624
2023-05-25,1.5531065984963457
2023-05-26,1.5522584049745476
2023-05-29,1.5521415125770748
2023-05-30,1.5515247187521133
2023-05-31,1.5504507716637885
2023-06-01,1.550248675591856
2023-06-02,1.5503368784055016
2023-06-05,1.5493403198787077
2023-06-06,1.5449560571902108
2023-06-07,1.5449160823393044
2023-06-08,1.5462838671683168
2023-06-09,1.5465368355904918
2023-06-12,1.5471652598660377
2023-06-13,1.546216363894391
2023-06-14,1.5471492369026285
2023-06-15,1.5519171354351111
2023-06-16,1.5551170165373576
2023-06-19,1.5468123273371097
2023-06-20,1.5468222734173103
2023-06-21,1.5412756253181201
2023-06-26,1.5362418902820887
2023-06-27,1.5413404084963145
2023-06-28,1.5406566575059106
2023-06-29,1.53592360329523
2023-06-30,1.5396530908224366
2023-07-03,1.5435872634648886
2023-07-04,1.5463545491639439
2023-07-05,1.5446851317700265
2023-07-06,1.5411167827177645
2023-07-07,1.5398716476871372
2023-07-10,1.5393579263318882
2023-07-11,1.5436495084070432
2023-07-12,1.5415266579869
2023-07-13,1.548235962475041
2023-07-14,1.5454309247309617
2023-07-17,1.5376512330654872
2023-07-18,1.5378857378562731
2023-07-19,1.538199571957773
2023-07-20,1.5327112445508353
2023-07-21,1.5313651221884599
2023-07-24,1.5255799847166498
2023-07-25,1.5438015590523004
2023-07-26,1.5422168153187004
2023-07-27,1.540573258444706
2023-07-28,1.574314270707456
2023-07-31,1.5897911837381336
2023-08-01,1.5782519028478301
2023-08-02,1.5709877780211585
2023-08-03,1.581550924160446
2023-08-04,1.5863023457734073
2023-08-07,1.5723301358520065
2023-08-08,1.5650422660087808
2023-08-09,1.5616032519305174
2023-08-10,1.5616259574253786
2023-08-11,1.5344836161380724
2023-08-14,1.5296483631034539
2023-08-15,1.5281634586191173
2023-08-16,1.528261357095087
2023-08-17,1.528489602398265
2023-08-18,1.5282521348809364
2023-08-21,1.5244144160380544
2023-08-22,1.5246991484491053
2023-08-23,1.523981148621299
2023-08-24,1.5236045452598437
2023-08-25,1.5244264412318433
2023-08-28,1.5243035169964756
2023-08-29,1.5236728468755643
2023-08-30,1.523645149423827
2023-08-31,1.5220544118939094
2023-09-01,1.5252986088869405
2023-09-04,1.5312911989767366
2023-09-05,1.5262811666132279
2023-09-06,1.5262705070313642
2023-09-07,1.5238642370964615
2023-09-08,1.5219078643581099
2023-09-11,1.5215003921891372
2023-09-12,1.5206585903752454
2023-09-13,1.5185743583244808
2023-09-14,1.520561347428568
2023-09-15,1.519508294834218
2023-09-18,1.5224904154585879
2023-09-19,1.5221255222014722
2023-09-20,1.5201095896569732
2023-09-21,1.5162425676564122
2023-09-22,1.5186014180457161
2023-09-25,1.5181596614757829
2023-09-26,1.5162308804255915
2023-09-27,1.5150244577250214
2023-09-28,1.5147133686006922
2023-10-09,1.5165230081307743
2023-10-10,1.5170075882319733
2023-10-11,1.5199906353104187
2023-10-12,1.5215677880098875
2023-10-13,1.5216124930846395
2023-10-16,1.5204684058885833
2023-10-17,1.523407693634988
2023-10-18,1.5246875418258177
2023-10-19,1.517391887833426
2023-10-20,1.5149095806901007
2023-10-23,1.5172430992387802
2023-10-24,1.5154127422190111
2023-10-25,1.5156191202954101
2023-10-26,1.5154021918427214
2023-10-27,1.5160480892708799
2023-10-30,1.5218103673856171
2023-10-31,1.520513340260264
2023-11-01,1.5204369630735264
2023-11-02,1.5180852945924461
2023-11-03,1.5194968403469504
2023-11-06,1.5215173676258964
2023-11-07,1.5188471825755994
2023-11-08,1.5168234177706097
2023-11-09,1.5137649430577271
2023-11-10,1.5124173467948916
2023-11-13,1.5082875424938529
2023-11-14,1.5081728311558802
2023-11-15,1.5106336989609377
2023-11-16,1.5063194951984307
2023-11-17,1.5047198221658307
2023-11-20,1.5040284070445669
2023-11-21,1.504363373080575
2023-11-22,1.503375762124753
2023-11-23,1.5032179051895878
2023-11-24,1.5038711949813868
2023-11-27,1.5035572265417827
2023-11-28,1.5038780535770144
2023-11-29,1.5045235436342685
2023-11-30,1.5066601044934305
2023-12-01,1.5057831558252506
2023-12-04,1.5076516057393035
2023-12-05,1.5027672564367465
2023-12-06,1.5019888062574926
2023-12-07,1.5013099111167982
2023-12-08,1.5036023479691139
2023-12-11,1.5047966037998168
2023-12-12,1.5047460751955177
2023-12-13,1.5037640640848875
2023-12-14,1.5032676476829108
2023-12-15,1.5024484951564363
2023-12-18,1.5030103915491027
2023-12-19,1.5024090291419365
2023-12-20,1.498018829260793
2023-12-21,1.497613479587512
2023-12-22,1.4970942246046013
2023-12-25,1.4979735049519443
2023-12-26,1.4976380154802567
2023-12-27,1.4987980198739008
2023-12-28,1.4985009158979028
2023-12-29,1.5072417135529097
2024-01-02,1.5015668230288541
2024-01-03,1.4997146358714915
2024-01-04,1.499334055563535
2024-01-05,1.497822594535133
2024-01-08,1.4901086516136863
2024-01-09,1.4939808690581193
2024-01-10,1.4926970390058394
2024-01-11,1.4918175085746883
2024-01-12,1.4929828295188614
2024-01-15,1.4954974614416996
2024-01-16,1.4997362824379405
2024-01-17,1.4895751746222783
2024-01-18,1.4981981172061491
2024-01-19,1.4950560942497761
2024-01-22,1.4917534601715805
2024-01-23,1.491170981941442
2024-01-24,1.4948242130778344
2024-01-25,1.5013332719250145
2024-01-26,1.5050303596320556
2024-01-29,1.5033975691383725
2024-01-30,1.4954125532558018
2024-01-31,1.4947099008913267
2024-02-01,1.4908229468927783
2024-02-02,1.4899904390559828
2024-02-05,1.5025217476558064
2024-02-06,1.5149082332233013
2024-02-07,1.527603079027047
2024-02-08,1.5297792773040757
2024-02-19,1.536897936588475
2024-02-20,1.542432611763175
2024-02-21,1.5580151271964295
2024-02-22,1.5636830335223855
2024-02-23,1.5602184944292083
2024-02-26,1.5442576986096905
2024-02-27,1.5536249579382515
2024-02-28,1.5375008657325158
2024-02-29,1.5581623493399177
2024-03-01,1.565354941017021
2024-03-04,1.5698665144880963
2024-03-05,1.5822459861978568
2024-03-06,1.575103330413039
2024-03-07,1.5697337476802111
2024-03-08,1.5684137983251414
2024-03-11,1.585370082888064
2024-03-12,1.587337908480928
2024-03-13,1.583330095490649
2024-03-14,1.5888629125078415
2024-03-15,1.5901313200927938
2024-03-18,1.6012473361894388
2024-03-19,1.5942016735271323
2024-03-20,1.5940480100923229
2024-03-21,1.5960475974065655
2024-03-22,1.5880333666085988
2024-03-25,1.5864477287278393
2024-03-26,1.5898165952943264
2024-03-27,1.5837125012301598
2024-03-28,1.5845277197563845
2024-03-29,1.5880348264514774
2024-04-01,1.5964766436600188
2024-04-02,1.593214987940658
2024-04-03,1.5941088609560907
2024-04-08,1.5874334458053665
2024-04-09,1.5835139403809027
2024-04-10,1.586856922460038
2024-04-11,1.5901980384621324
2024-04-12,1.5852571734769665
2024-04-15,1.5997888553175976
2024-04-16,1.6006383518750211
2024-04-17,1.605353305072975
2024-04-18,1.6072976521538929
2024-04-19,1.6077576986333875
2024-04-22,1.5961204293714297
2024-04-23,1.590130411610135
2024-04-24,1.5901435468403327
2024-04-25,1.6029653632234524
2024-04-26,1.6053071474979874
2024-04-29,1.6142453901062281
2024-04-30,1.6165885603216104
2024-05-06,1.636476740260471
2024-05-07,1.6363212993669436
2024-05-08,1.6242750079072372
2024-05-09,1.6364357649523902
2024-05-10,1.6411397763508044
2024-05-13,1.6417675978108828
2024-05-14,1.6441565347366343
2024-05-15,1.6360806686644003
2024-05-16,1.645134769712186
2024-05-17,1.6565863679560067
2024-05-20,1.6559433109668318
2024-05-21,1.6500869232647004
2024-05-22,1.6500535408388426
2024-05-23,1.6410622580461072
2024-05-24,1.624945559234299
2024-05-27,1.6290766074041743
2024-05-28,1.6244290172301852
2024-05-29,1.6290039399675071
2024-05-30,1.6269483211217466
2024-05-31,1.6205689283810527
2024-06-03,1.6235836370488779
2024-06-04,1.6244006316309945
2024-06-05,1.625039899109305
2024-06-06,1.6266119857497328
2024-06-07,1.6241252220602247
2024-06-11,1.6235889393310436
2024-06-12,1.625297752849359
2024-06-13,1.627603122724948
2024-06-14,1.6266129466654566
2024-06-17,1.628854416482464
2024-06-18,1.629294035443766
2024-06-19,1.6289693854951803
2024-06-20,1.6301318545486434
2024-06-21,1.6296316033059153
2024-06-24,1.6294821984694725
2024-06-25,1.628654341486052
2024-06-26,1.630085340212555
2024-06-27,1.6307154081387807
2024-06-28,1.6342639263604537
2024-07-01,1.6376056540358774
2024-07-02,1.6404512965399307
2024-07-03,1.637575499471246
2024-07-04,1.6389139372673407
2024-07-05,1.635016378146013
2024-07-08,1.6389835031755875
2024-07-09,1.6476476853125896
2024-07-10,1.6438152151972198
2024-07-11,1.6485394926055028
2024-07-12,1.6519376222814108
2024-07-15,1.654525328240938
2024-07-16,1.6602471952833548
2024-07-17,1.657748118406434
2024-07-18,1.6576559534151751
2024-07-19,1.6604893152190312
2024-07-22,1.653388212162055
2024-07-23,1.630709676224727
2024-07-24,1.6262881793923305
2024-07-25,1.6281568011219496
2024-07-26,1.6257894619629896
2024-07-29,1.6192002960657301
2024-07-30,1.6144575984593883
2024-07-31,1.6207559859107175
2024-08-01,1.621874974423738
2024-08-02,1.6201600570521828
2024-08-05,1.6164644334730558
2024-08-06,1.6171707146715424
2024-08-07,1.6158691715584474
2024-08-08,1.6150322400188455
2024-08-09,1.6124028715312693
2024-08-12,1.6140859616801713
2024-08-13,1.6141754140898779
2024-08-14,1.6142074751291546
2024-08-15,1.617941441603724
2024-08-16,1.6169192183630814
2024-08-19,1.6153825923251295
2024-08-20,1.6134273415257503
2024-08-21,1.6129855088278588
2024-08-22,1.6134457414089496
2024-08-23,1.6172361933439015
2024-08-26,1.615804259520894
2024-08-27,1.6175252865643766
2024-08-28,1.6124997792227445
2024-08-29,1.6079893547810176
2024-08-30,1.6092941929935165
2024-09-02,1.6005458607415484
2024-09-03,1.6050745709827492
2024-09-04,1.6029903405826236
2024-09-05,1.603853461306985
2024-09-06,1.597187336264252
2024-09-09,1.5898707165664658
2024-09-10,1.5881396265841714
2024-09-11,1.595823710673544
2024-09-12,1.5942362268444523
2024-09-13,1.5920262933684457
2024-09-18,1.5963317407540631
2024-09-19,1.598907852817723
2024-09-20,1.5960618121397672
2024-09-23,1.5968714568816256
2024-09-24,1.6090511155145
2024-09-25,1.6227734241678895
2024-09-26,1.6689391293595337
2024-09-27,1.741005917999807
2024-09-30,1.8698761001127016
2024-10-08,1.9564371494120787
2024-10-09,1.8265908207884705
2024-10-10,1.8495400147865753
2024-10-11,1.8144113343486479
2024-10-14,1.837606826235192
2024-10-15,1.802915975260712
2024-10-16,1.787471575481084
2024-10-17,1.7630346246872837
2024-10-18,1.7999644537574333
2024-10-21,1.8063943577150612
2024-10-22,1.8200225413970073
2024-10-23,1.8278896830333595
2024-10-24,1.81013493920803
2024-10-25,1.8223114152151096
2024-10-28,1.8281745260087454
2024-10-29,1.8169215857124439
2024-10-30,1.8113335511016806
2024-10-31,1.8167959541251235
2024-11-01,1.8149601149759356
2024-11-04,1.8258690881085717
2024-11-05,1.8455486755347825
2024-11-06,1.8390406628788163
2024-11-07,1.8655023246286624
2024-11-08,1.8537481412359953
2024-11-11,1.8555960400065243
2024-11-12,1.8483541927525706
2024-11-13,1.8471264129120468
2024-11-14,1.827763854727751
2024-11-15,1.8093878921153876
2024-11-18,1.799940996446694
2024-11-19,1.800988200061828
2024-11-20,1.8004735088069446
2024-11-21,1.8003879753903511
2024-11-22,1.792076285080017
2024-11-25,1.792901994657381
2024-11-26,1.792293851806025
2024-11-27,1.7926339435561027
2024-11-28,1.7925021747243075
2024-11-29,1.7918043975025966
2024-12-02,1.7910165373585252
2024-12-03,1.7911953031270884
2024-12-04,1.793239862792657
2024-12-05,1.791790313602721
2024-12-06,1.7932771464980652
2024-12-09,1.7939359850725012
2024-12-10,1.7915746830451562
2024-12-11,1.793320651695257
2024-12-12,1.7952253234334437
2024-12-13,1.7815564166917888
2024-12-16,1.7814292619190226
2024-12-17,1.7825038551169796
2024-12-18,1.784741429060713
2024-12-19,1.7831491788205882
2024-12-20,1.7770393775851376
2024-12-23,1.7828680153108671
2024-12-24,1.7906752351322512
2024-12-25,1.791029527730848
2024-12-26,1.7916878757830306
2024-12-27,1.7912722015770646
2024-12-30,1.7933002141134262
2024-12-31,1.789142831787042
2025-01-02,1.7763722847476326
2025-01-03,1.7730131741516861
2025-01-06,1.773471725774465
2025-01-07,1.7727994550200175
2025-01-08,1.777876106313166
2025-01-09,1.7785184764699697
2025-01-10,1.7746817184825427
2025-01-13,1.7695399130315335
2025-01-14,1.7709205873934115
2025-01-15,1.7681532576899142
2025-01-16,1.7715386155632755
2025-01-17,1.7713051640546198
2025-01-20,1.7702569688544478
2025-01-21,1.7701449961833817
2025-01-22,1.767695322383376
2025-01-23,1.7674551242214946
2025-01-24,1.7691508117386963
2025-01-27,1.7696752790939676
2025-02-05,1.7709702020816764
2025-02-06,1.7724510950419237
2025-02-07,1.7789672876471405
2025-02-10,1.7828554306410507
2025-02-11,1.7829703022639567
2025-02-12,1.7930473440988204
2025-02-13,1.7985536252397443
2025-02-14,1.8088087335892082
2025-02-17,1.802354120937709
2025-02-18,1.7944449877170672
2025-02-19,1.8051988834748567
2025-02-20,1.8042042018730213
2025-02-21,1.8162904607539814
2025-02-24,1.81278295994395
2025-02-25,1.7997548536856849
2025-02-26,1.8096535828524223
2025-02-27,1.814693487729621
2025-02-28,1.79114831732677
2025-03-03,1.7905056451459318
2025-03-04,1.7874446450047325
2025-03-05,1.7900789190837079
2025-03-06,1.7960983023347656
2025-03-07,1.7963602490778654
2025-03-10,1.7922284893031293
2025-03-11,1.7952981312165095
2025-03-12,1.787138800128337
2025-03-13,1.7871390515602903
2025-03-14,1.8041252186867627
2025-03-17,1.8067286146945738
2025-03-18,1.8077978205934546
2025-03-19,1.8129602124799533
2025-03-20,1.7981445780239587
2025-03-21,1.7836293009505841
2025-03-24,1.7895579870702065
2025-03-25,1.7886119479703122
2025-03-26,1.7874657421322548
2025-03-27,1.7889576159111875
2025-03-28,1.7856424920259246
2025-03-31,1.7821905397464863
2025-04-01,1.7803268031886446
2025-04-02,1.7784872709460648
2025-04-03,1.7809288146291886
2025-04-07,1.766575352210671
2025-04-08,1.7731686516758733
2025-04-09,1.773803602229101
2025-04-10,1.7772118408549853
2025-04-11,1.7709291914752598
2025-04-14,1.7715849085952018
2025-04-15,1.7671887132628452
2025-04-16,1.7738181293314552
2025-04-17,1.7728351284407542
2025-04-18,1.7703474026015857
2025-04-21,1.7649821937055434
2025-04-22,1.7655024728053317
2025-04-23,1.7600355056789663
2025-04-24,1.7632908443828554
2025-04-25,1.7605354293002728
2025-04-28,1.7606937642894795
2025-04-29,1.7598648494638427
2025-04-30,1.755885106214109
2025-05-06,1.7552084521499123
2025-05-07,1.7542962919013487
2025-05-08,1.7548543098749165
2025-05-09,1.7556936745072411
2025-05-12,1.7664353970885978
2025-05-13,1.7701879914755658
2025-05-14,1.7779680617728666
2025-05-15,1.7681546423197032
2025-05-16,1.7592616072739762
2025-05-19,1.7541375567010447
2025-05-20,1.7636140292295757
2025-05-21,1.7708278596401246
2025-05-22,1.7724866810914024
2025-05-23,1.7621912552623864
2025-05-26,1.7525885899793328
2025-05-27,1.7459721715369623
2025-05-28,1.7494300884026497
2025-05-29,1.7464042845211685
2025-05-30,1.7416916388502923
2025-06-03,1.7452983896614573
2025-06-04,1.7447520570470023
2025-06-05,1.7411895400631403
2025-06-06,1.7407202146581946
2025-06-09,1.745023683480084
2025-06-10,1.7437641362355758
2025-06-11,1.7494289185344003
2025-06-12,1.752192669173884
2025-06-13,1.7504401621654773
2025-06-16,1.749348949093677
2025-06-17,1.7475645671544908
2025-06-18,1.7457671851180898
2025-06-19,1.740193717231806
2025-06-20,1.7427179209161703
2025-06-23,1.7431754712692633
2025-06-24,1.7462033567003685
2025-06-25,1.7520376552368588
2025-06-26,1.7487271015066463
2025-06-27,1.7446699638079524
2025-06-30,1.747280139105183
2025-07-01,1.746271175655555
2025-07-02,1.757032394300713
2025-07-03,1.7648753789631553
2025-07-04,1.76802241466244
2025-07-07,1.7622813500613663
2025-07-08,1.779830655772913
2025-07-09,1.7775124940577898
2025-07-10,1.7863348911854513
2025-07-11,1.784128155053977
2025-07-14,1.7890393785074967
2025-07-15,1.783808903775982
2025-07-16,1.782896737674678
2025-07-17,1.7912490601820654
2025-07-18,1.7964415105918126
2025-07-21,1.8116730260544656
2025-07-22,1.8374912015875393
2025-07-23,1.8315248598153557
2025-07-24,1.8432840802835309
2025-07-25,1.8243100902974956
2025-07-28,1.8211811592400577
2025-07-29,1.8216240988582915
2025-07-30,1.8264310909575305
2025-07-31,1.7909302070187616
2025-08-01,1.7893391637198264
2025-08-04,1.7861212943872238
2025-08-05,1.7894449209787868
2025-08-06,1.7893523795750441
2025-08-07,1.7879991743319086
2025-08-08,1.7872852136133532
2025-08-11,1.7886098876266026
2025-08-12,1.7928571112253577
2025-08-13,1.7976962003567112
2025-08-14,1.7950513003383712
2025-08-15,1.8033604686690756
2025-08-18,1.8120729981049368
2025-08-19,1.8067065003670622
2025-08-20,1.8148340596068904
2025-08-21,1.8204382096907898
2025-08-22,1.8303338492826722
2025-08-25,1.8475968606888373
2025-08-26,1.8572676007800184
2025-08-27,1.8299803983346778
2025-08-28,1.8385617649492163
2025-08-29,1.8460197814820618
2025-09-01,1.8523407599126476
2025-09-02,1.8463372149566555
2025-09-03,1.835933746312314
2025-09-04,1.81832778637475
2025-09-05,1.8484078696452897
2025-09-08,1.857772846507199
2025-09-09,1.8529859846516052
2025-09-10,1.845590980130944
2025-09-11,1.86304124308835
2025-09-12,1.8581944103600658
2025-09-15,1.8653791612948596
2025-09-16,1.8607961252788932
2025-09-17,1.8661208489188632
2025-09-18,1.8524255445696929
2025-09-19,1.8562386783268505
2025-09-22,1.857639918551225
2025-09-23,1.8558287340147546
2025-09-24,1.8616696230254233
2025-09-25,1.8675906065547623
2025-09-26,1.8641681577335303
2025-09-29,1.871210311604278
2025-09-30,1.878538741659758
2025-10-09,1.8856132517056277
2025-10-10,1.8714536109748792
2025-10-13,1.8659414120150601
2025-10-14,1.8662753872490085
2025-10-15,1.8713895380621457
2025-10-16,1.8738143546325754
2025-10-17,1.8662390106573075
2025-10-20,1.8612998010976178
2025-10-21,1.8631484423221223
2025-10-22,1.8650901727951643
2025-10-23,1.868030372166077
2025-10-24,1.8650191002101075
2025-10-27,1.8714315087859201
2025-10-28,1.8630283757792414
2025-10-29,1.8747641535833584
2025-10-30,1.877817395271944
2025-10-31,1.871125221808018
2025-11-03,1.8746122937135854
2025-11-04,1.8690959394791464
2025-11-05,1.8718213460316322
2025-11-06,1.8729080214228626
2025-11-07,1.8804379655878245
2025-11-10,1.8952812432441422
2025-11-11,1.894497888689843
2025-11-12,1.8892623850232912
2025-11-13,1.8946221314321046
2025-11-14,1.889217352173073
2025-11-17,1.879496461822725
2025-11-18,1.872356037753943
2025-11-19,1.8789841181565243
2025-11-20,1.8702506555022642
2025-11-21,1.8644828905400659
2025-11-24,1.858440405327678
2025-11-25,1.859358803990167
2025-11-26,1.858547534967998
2025-11-27,1.8592858841620772
2025-11-28,1.8597328094233998
2025-12-01,1.8605066571720514
2025-12-02,1.862586912091371
2025-12-03,1.861982727821898
2025-12-04,1.8614069542319216
2025-12-05,1.8613816381685477
2025-12-08,1.8611283428460588
2025-12-09,1.8575595040556043
2025-12-10,1.8548311021325594
2025-12-11,1.8518412654193188
2025-12-12,1.8565924889503693
2025-12-15,1.856732631547947
2025-12-16,1.8549989919565897
2025-12-17,1.8578998839464012
2025-12-18,1.856118598885674
2025-12-19,1.8590404894947765
2025-12-22,1.8596879964399435
2025-12-23,1.857836134502825
2025-12-24,1.8589460749980506
2025-12-25,1.8599252034738363
2025-12-26,1.8636050827021131
2025-12-29,1.8600252278757634
2025-12-30,1.8593019201599195
2025-12-31,1.860652681320667
2026-01-05,1.8612345065204883
2026-01-06,1.8757042840011677
2026-01-07,1.8656561330212533
2026-01-08,1.8614618777269958
2026-01-09,1.8649750519618002
2026-01-12,1.8703284113083003
2026-01-13,1.8601531487890461
2026-01-14,1.8582617536939876
2026-01-15,1.8533541600450296
2026-01-16,1.8486559260112942
2026-01-19,1.8430442059387082
2026-01-20,1.8485587617620733
2026-01-21,1.84813170936175
2026-01-22,1.8476341976023096
2026-01-23,1.8448771844520395
2026-01-26,1.8382939360320283
2026-01-27,1.8353176983948318
2026-01-28,1.8354828105081546
2026-01-29,1.8404566360500656
2026-01-30,1.8244379306565344
2026-02-02,1.8188935448408152
2026-02-03,1.826465640508393
2026-02-04,1.8363172231059581
2026-02-05,1.833824088530311
2026-02-06,1.8307084068359474
2026-02-09,1.8352062403655631
2026-02-10,1.8320330841266652
2026-02-11,1.8300614675796565
2026-02-12,1.8263370401261714
2026-02-13,1.8169673396846344
2026-02-24,1.816676472998032
2026-02-25,1.8211235637672627
2026-02-26,1.8122778572042229
2026-02-27,1.8115883136272584
2026-03-02,1.8164069916710681
2026-03-03,1.8177131825277746
2026-03-04,1.8176890124660199
2026-03-05,1.8140258114951098
2026-03-06,1.8159947889107357
2026-03-09,1.8208555278798526
2026-03-10,1.8154775328005959
2026-03-11,1.8232287205074458
2026-03-12,1.8251045091424702
2026-03-13,1.8241308833538743
2026-03-16,1.8282052096704429
2026-03-17,1.8266292145724168
2026-03-18,1.8241911275373344
2026-03-19,1.8257754682826535
2026-03-20,1.82882467462868
2026-03-23,1.81602973651058
2026-03-24,1.8142590303053998
2026-03-25,1.812674741549065
2026-03-26,1.8126360742364922
2026-03-27,1.8155670409425055
2026-03-30,1.8157840632615063
2026-03-31,1.8144833904809439
2026-04-01,1.8140686197044873
2026-04-02,1.8129674510455158
2026-04-03,1.805954944390148
2026-04-07,1.8043586494608692
2026-04-08,1.8058604182277167
2026-04-09,1.8071469033076688
2026-04-10,1.8102574131277986
2026-04-13,1.8084571580037074
2026-04-14,1.8111905144284135
2026-04-15,1.8120298067394918
2026-04-16,1.8149434834023381
2026-04-17,1.8081254563532336
2026-04-20,1.8115177335352375
2026-04-21,1.8124009544610198
2026-04-22,1.8129306142279258
2026-04-23,1.8109622115098478
2026-04-24,1.8074153401753474
2026-04-27,1.8067631951285272
2026-04-28,1.8054531200403294
2026-04-29,1.8098664899700567
2026-04-30,1.8115866846738877
2026-05-06,1.8184879621672205
2026-05-07,1.8161904259060273
2026-05-08,1.814286331920061
2026-05-11,1.8247160852870297
2026-05-12,1.819913992064519
2026-05-13,1.8185212915826714
2026-05-14,1.806344775042281
2026-05-15,1.8032026666374497
2026-05-18,1.7973955791262073
2026-05-19,1.7974390558069315
2026-05-20,1.795776559425796
2026-05-21,1.7948127479512832
2026-05-22,1.7948026526829388
2026-05-25,1.7965906190837222
2026-05-26,1.7953427344395039
2026-05-27,1.7948475697193098
2026-05-28,1.79346869408909
2026-05-29,1.7902604202047263
2026-06-01,1.7900910166050557
2026-06-02,1.789985890859541
2026-06-03,1.7902011657452896
2026-06-04,1.7892363335401178
2026-06-05,1.789288133857149
2026-06-08,1.79302745816137
2026-06-09,1.790372041543477
2026-06-10,1.7910462658802087
2026-06-11,1.792187584117673
2026-06-12,1.790575961473123
2026-06-15,1.7836847389179482
2026-06-16,1.7801183851136022
2026-06-17,1.778716778650922
2026-06-18,1.770237714751464
2026-06-22,1.773772365473087
2026-06-23,1.7702936048607787
2026-06-24,1.7743606676814359
2026-06-25,1.778186586549957
2026-06-26,1.7697953235160784
2026-06-29,1.7693372631265294
2026-06-30,1.7723764251749923
2026-07-01,1.7753876756092548
2026-07-02,1.7709848710776548
2026-07-03,1.7730324322570212
2026-07-06,1.7781925178079805
2026-07-07,1.7729371588852259
2026-07-08,1.769127572552524
2026-07-09,1.7747473235926867
2026-07-10,1.7744277099059862
2026-07-13,1.7736396817117457
2026-07-14,1.7775539803991613
2026-07-15,1.788339610192903
2026-07-16,1.7894687608086495
2026-07-17,1.778191290310754
2026-07-20,1.7957577952135864
2026-07-21,1.7877008367823166
2026-07-22,1.7942420533067613
2026-07-23,1.791269622681744
2026-07-24,1.7744266554204444
2026-07-27,1.782669696673804
2026-07-28,1.7951142470931636
2026-07-29,1.8126363016231402
2026-07-30,1.8449011660629115
2026-07-31,1.8368618719828902
2026-08-03,1.8286681090497996
2026-08-04,1.8019281252711248
2026-08-05,1.8022280561880037
2026-08-06,1.790256015585283
2026-08-07,1.7951306399995417
2026-08-10,1.8024692282501333
2026-08-11,1.78722509431437
2026-08-12,1.7932402062995516
2026-08-13,1.7845449070366421
2026-08-14,1.7797828165667955
2026-08-17,1.7794346681002866
2026-08-18,1.7790534184553048
2026-08-19,1.774545340234596
2026-08-20,1.77824487967639
2026-08-21,1.7749700233396073
2026-08-24,1.7751745751660675
2026-08-25,1.7745402790575544
2026-08-26,1.7743587185507081
2026-08-27,1.7745483022935846
2026-08-28,1.777722309814461
2026-08-31,1.7788479080495574
2026-09-01,1.782638174901517
2026-09-02,1.7777918742882972
2026-09-03,1.7787338799345394
2026-09-04,1.7839859123061563
2026-09-07,1.7748258122436344
2026-09-08,1.777544345972456
2026-09-09,1.7757347846347369
2026-09-10,1.7743226947046202
2026-09-11,1.770801417295014
2026-09-14,1.7697727665150726
2026-09-15,1.7655863316276394
2026-09-16,1.7631350379439434
2026-09-17,1.7628976134626184
2026-09-18,1.7624518841140357
2026-09-21,1.765770726195145
2026-09-22,1.7659890861450038
2026-09-23,1.7654431495781646
