date,equity
2018-10-16,1.0
2018-10-17,1.0
2018-10-18,1.0
2018-10-19,1.0
2018-10-22,1.0
2018-10-23,1.0
2018-10-24,1.0
2018-10-25,1.0
2018-10-26,1.0
2018-10-29,1.0
2018-10-30,1.0
2018-10-31,1.0
2018-11-01,1.0
2018-11-02,1.0
2018-11-05,1.0
2018-11-06,1.0
2018-11-07,1.0
2018-11-08,1.0
2018-11-09,1.0
2018-11-12,1.0
2018-11-13,0.9999262873176314
2018-11-14,0.9992739718539178
2018-11-15,1.0021095297680265
2018-11-16,1.0054142987283743
2018-11-19,1.0076794247501786
2018-11-20,0.9985676835477121
2018-11-21,0.9985220911166318
2018-11-22,0.9982036523923152
2018-11-23,0.989937909775001
2018-11-26,0.9904723596526482
2018-11-27,0.9918986185182352
2018-11-28,0.9959921381074417
2018-11-29,0.9934280814533739
2018-11-30,0.9928344000640205
2018-12-03,1.0018212024942577
2018-12-04,1.0002114971108715
2018-12-05,1.0043053864181588
2018-12-06,0.9901746462542781
2018-12-07,0.9900242051951695
2018-12-10,0.9882680355798362
2018-12-11,0.9871887764011069
2018-12-12,0.9876335221346534
2018-12-13,0.9922304402124076
2018-12-14,0.9807562296846762
2018-12-17,0.9779802797019614
2018-12-18,0.9775746705833107
2018-12-19,0.972591671520609
2018-12-20,0.9697724662576154
2018-12-21,0.9692202698577607
2018-12-24,0.9692563341727034
2018-12-25,0.9688056634137334
2018-12-26,0.9692765735560744
2018-12-27,0.9693528097699745
2018-12-28,0.9695721313702792
2019-01-02,0.9681908367105228
2019-01-03,0.9683818084055785
2019-01-04,0.9680649724998861
2019-01-07,0.9678997017539978
2019-01-08,0.9679104784538479
2019-01-09,0.968175825735805
2019-01-10,0.9671547190342388
2019-01-11,0.9678005042917045
2019-01-14,0.9662956306341504
2019-01-15,0.9713739590538398
2019-01-16,0.970779843209058
2019-01-17,0.9691084331280739
2019-01-18,0.9797414460051952
2019-01-21,0.9806005544131849
2019-01-22,0.9700847783247482
2019-01-23,0.9733546081991451
2019-01-24,0.978794721302964
2019-01-25,0.9839515269409078
2019-01-28,0.984633822153456
2019-01-29,0.9891384931865403
2019-01-30,0.9856515774817458
2019-01-31,0.9980099746226707
2019-02-01,1.0089577309427358
2019-02-11,1.0240610537207284
2019-02-12,1.0296395473887339
2019-02-13,1.0418785404979607
2019-02-14,1.049523538261904
2019-02-15,1.0311529053236517
2019-02-18,1.0622826573544366
2019-02-19,1.0593831886016887
2019-02-20,1.0663388490871113
2019-02-21,1.06866795087574
2019-02-22,1.0876566232627558
2019-02-25,1.127749806736548
2019-02-26,1.1168992637620867
2019-02-27,1.1041770104696005
2019-02-28,1.1133078300641417
2019-03-01,1.135164084018024
2019-03-04,1.14828458632584
2019-03-05,1.1535141310173758
2019-03-06,1.1527783785560397
2019-03-07,1.1296141620588946
2019-03-08,1.1000568270265667
2019-03-11,1.1147581323350055
2019-03-12,1.1173242561885683
2019-03-13,1.109618174325606
2019-03-14,1.1083340898085647
2019-03-15,1.1194483426568673
2019-03-18,1.1363929563088038
2019-03-19,1.131584900924338
2019-03-20,1.128694717978293
2019-03-21,1.124488594271289
2019-03-22,1.124073033180591
2019-03-25,1.1084825047308984
2019-03-26,1.1052487139564156
2019-03-27,1.1140033778794203
2019-03-28,1.112731354277901
2019-03-29,1.1291249907875331
2019-04-01,1.1435349602903615
2019-04-02,1.1416353615668537
2019-04-03,1.1493029507394705
2019-04-04,1.1541974972136408
2019-04-08,1.1539407024312502
2019-04-09,1.1587067332665366
2019-04-10,1.1683461978291099
2019-04-11,1.1459325502322777
2019-04-12,1.1420739493297072
2019-04-15,1.1412929977525896
2019-04-16,1.160057326698752
2019-04-17,1.1670376509641167
2019-04-18,1.164042551198942
2019-04-19,1.1725870930467288
2019-04-22,1.1579552653723657
2019-04-23,1.1570778319114203
2019-04-24,1.160744140849699
2019-04-25,1.1522206943015472
2019-04-26,1.1394298130185134
2019-04-29,1.1485543706059635
2019-04-30,1.146566357110692
2019-05-06,1.1276912050279637
2019-05-07,1.1322908840467478
2019-05-08,1.1307008884705196
2019-05-09,1.1295185391549833
2019-05-10,1.1336785487660712
2019-05-13,1.1329665605638313
2019-05-14,1.1326145780213117
2019-05-15,1.135076805375239
2019-05-16,1.1355103436944
2019-05-17,1.130550877127735
2019-05-20,1.127149651427068
2019-05-21,1.1290403711101293
2019-05-22,1.1292243584431574
2019-05-23,1.1260940219607336
2019-05-24,1.1252011220212057
2019-05-27,1.1267017206031094
2019-05-28,1.12867289804267
2019-05-29,1.1272861163726653
2019-05-30,1.1268276647990476
2019-05-31,1.1266488499615475
2019-06-03,1.127327486015652
2019-06-04,1.1249700226725423
2019-06-05,1.126664898557134
2019-06-06,1.1222632852233259
2019-06-10,1.1277291507627099
2019-06-11,1.1345944388146505
2019-06-12,1.1308333707837905
2019-06-13,1.1259507772667403
2019-06-14,1.12185888045609
2019-06-17,1.1208973956918067
2019-06-18,1.1239116484227172
2019-06-19,1.131058463335871
2019-06-20,1.1509202164066266
2019-06-21,1.15115737962296
2019-06-24,1.153792642296192
2019-06-25,1.1448907950333864
2019-06-26,1.1479178341648735
2019-06-27,1.1641064063110729
2019-06-28,1.1636615421600447
2019-07-01,1.1923653399234149
2019-07-02,1.1962427547324754
2019-07-03,1.183659092948304
2019-07-04,1.1755678160367034
2019-07-05,1.1842048921473542
2019-07-08,1.1650859572150938
2019-07-09,1.1669929647965123
2019-07-10,1.167813294945401
2019-07-11,1.1650640136159631
2019-07-12,1.1682617088583385
2019-07-15,1.1715127697212226
2019-07-16,1.163984639016152
2019-07-17,1.1645472063202555
2019-07-18,1.158979346481606
2019-07-19,1.1626609670154353
2019-07-22,1.162570350382038
2019-07-23,1.1677732630513196
2019-07-24,1.1704007200719824
2019-07-25,1.1752495309497135
2019-07-26,1.180083216808644
2019-07-29,1.1787432976484353
2019-07-30,1.178411777330793
2019-07-31,1.1739742836222002
2019-08-01,1.1722774303636527
2019-08-02,1.1648414871517054
2019-08-05,1.155948954166648
2019-08-06,1.1531097591749901
2019-08-07,1.1520574882476702
2019-08-08,1.1548827649497784
2019-08-09,1.1524481585347024
2019-08-12,1.1547084499715763
2019-08-13,1.1548266798289948
2019-08-14,1.1555466448609237
2019-08-15,1.15769358884948
2019-08-16,1.1582507167609764
2019-08-19,1.1645264425957835
2019-08-20,1.1668449745786185
2019-08-21,1.1651415758608923
2019-08-22,1.1666778601160512
2019-08-23,1.171895734374767
2019-08-26,1.1661570396971987
2019-08-27,1.1760195722258986
2019-08-28,1.1768657263849738
2019-08-29,1.175078711524311
2019-08-30,1.1780128269837482
2019-09-02,1.1896836293011552
2019-09-03,1.1910900841439647
2019-09-04,1.190559678300172
2019-09-05,1.1954800892121031
2019-09-06,1.1969443697624618
2019-09-09,1.199196436723082
2019-09-10,1.1956232030300864
2019-09-11,1.1855412528851508
2019-09-12,1.187965317956598
2019-09-16,1.1850742843640703
2019-09-17,1.1776101158346952
2019-09-18,1.1791328593159205
2019-09-19,1.1806273155463898
2019-09-20,1.1831518744617588
2019-09-23,1.1777499880553184
2019-09-24,1.1794317390134728
2019-09-25,1.1767176079767752
2019-09-26,1.173143383437046
2019-09-27,1.1757336690028526
2019-09-30,1.171790207113515
2019-10-08,1.1713160626769972
2019-10-09,1.1696394192319757
2019-10-10,1.170368130252794
2019-10-11,1.17211121588412
2019-10-14,1.1726283762647856
2019-10-15,1.1747660936930109
2019-10-16,1.1739273328200546
2019-10-17,1.1774318809103637
2019-10-18,1.1733221778295073
2019-10-21,1.1740144684174916
2019-10-22,1.1767424773577158
2019-10-23,1.1751663190120625
2019-10-24,1.1749221753171075
2019-10-25,1.182260182789379
2019-10-28,1.183574506253083
2019-10-29,1.18676839502399
2019-10-30,1.1869236576257587
2019-10-31,1.1852067080386426
2019-11-01,1.190221791039094
2019-11-04,1.1937352008254907
2019-11-05,1.202435806893219
2019-11-06,1.1982459186398853
2019-11-07,1.201480743278823
2019-11-08,1.2033736426067725
2019-11-11,1.1918077616890501
2019-11-12,1.192111067068465
2019-11-13,1.1952770676925066
2019-11-14,1.1935058647821477
2019-11-15,1.1910222724791129
2019-11-18,1.192157137789375
2019-11-19,1.1975203895670945
2019-11-20,1.1921058826824626
2019-11-21,1.1894859861406752
2019-11-22,1.1830603853069062
2019-11-25,1.1849366250466689
2019-11-26,1.18782053993798
2019-11-27,1.1867878473476585
2019-11-28,1.18687411127242
2019-11-29,1.1841050727691222
2019-12-02,1.1886619072462756
2019-12-03,1.1920248195080467
2019-12-04,1.1909833393828975
2019-12-05,1.1938074012083941
2019-12-06,1.1969646269040466
2019-12-09,1.1992651652971156
2019-12-10,1.2009833064315303
2019-12-11,1.1989849470608718
2019-12-12,1.1961734634471317
2019-12-13,1.2008237959784724
2019-12-16,1.2018929917589816
2019-12-17,1.206922684588262
2019-12-18,1.2026378349774363
2019-12-19,1.201098102192583
2019-12-20,1.2022113318193455
2019-12-23,1.1964790468109556
2019-12-24,1.2055858020816341
2019-12-25,1.21038275105538
2019-12-26,1.2122978762372696
2019-12-27,1.2094997411363928
2019-12-30,1.2209970583534124
2019-12-31,1.2189657925883985
2020-01-02,1.229707167190968
2020-01-03,1.2284412668004066
2020-01-06,1.2247059658252735
2020-01-07,1.2293173760603944
2020-01-08,1.223214462684676
2020-01-09,1.2386444854736942
2020-01-10,1.2375690794420668
2020-01-13,1.248157866133844
2020-01-14,1.2458782982493024
2020-01-15,1.244945413996231
2020-01-16,1.2426451931737381
2020-01-17,1.2477602717529999
2020-01-20,1.2517682740533758
2020-01-21,1.240272366633431
2020-01-22,1.2455389725480261
2020-01-23,1.2331172814395082
2020-02-03,1.2170214799994394
2020-02-04,1.222890956386803
2020-02-05,1.2347773929474315
2020-02-06,1.2408011191418302
2020-02-07,1.238282519854261
2020-02-10,1.2406623962282666
2020-02-11,1.239390045714618
2020-02-12,1.240136358939913
2020-02-13,1.2391838300038456
2020-02-14,1.2393988809333514
2020-02-17,1.2487355145006651
2020-02-18,1.249942842093024
2020-02-19,1.2493483399266396
2020-02-20,1.2569596997527104
2020-02-21,1.2614309628431235
2020-02-24,1.2613870984898785
2020-02-25,1.2694867405999108
2020-02-26,1.2511121082569705
2020-02-27,1.2518237566416577
2020-02-28,1.2364186785789772
2020-03-02,1.2491268883180124
2020-03-03,1.2493427929464762
2020-03-04,1.2495146463383564
2020-03-05,1.2588493353687042
2020-03-06,1.2488914989200328
2020-03-09,1.23310964679243
2020-03-10,1.241456689840433
2020-03-11,1.23281926257212
2020-03-12,1.2234227331096859
2020-03-13,1.219427805036548
2020-03-16,1.210773006772933
2020-03-17,1.210773006772933
2020-03-18,1.210773006772933
2020-03-19,1.2107431737891197
2020-03-20,1.2104778049486018
2020-03-23,1.2089262467223811
2020-03-24,1.2109886668493828
2020-03-25,1.2114190759795893
2020-03-26,1.2137403546228553
2020-03-27,1.2123150561265328
2020-03-30,1.212320204626118
2020-03-31,1.2123345226985927
2020-04-01,1.210827276651841
2020-04-02,1.210972278143874
2020-04-03,1.2119002497376956
2020-04-07,1.2137994744091085
2020-04-08,1.2130146664549297
2020-04-09,1.2124469768096808
2020-04-10,1.2089187365303258
2020-04-13,1.2086353934919734
2020-04-14,1.2135043676808732
2020-04-15,1.209615949628447
2020-04-16,1.2131819601351053
2020-04-17,1.2201273947738327
2020-04-20,1.2238853546650956
2020-04-21,1.216095346872677
2020-04-22,1.2226609070496235
2020-04-23,1.2209931092154558
2020-04-24,1.218038796010556
2020-04-27,1.2200560669758052
2020-04-28,1.2318483950333925
2020-04-29,1.2327617768872186
2020-04-30,1.239347029797745
2020-05-06,1.241269928130895
2020-05-07,1.2394692999248171
2020-05-08,1.2447021427739837
2020-05-11,1.2441640411837696
2020-05-12,1.2483695731096436
2020-05-13,1.2486385060919507
2020-05-14,1.2370023001126025
2020-05-15,1.2341816029394026
2020-05-18,1.2328157529688113
2020-05-19,1.2384203761405699
2020-05-20,1.2354228925158366
2020-05-21,1.2328678444748107
2020-05-22,1.2211023483755865
2020-05-25,1.224258197656251
2020-05-26,1.2284618262390776
2020-05-27,1.2275563953143027
2020-05-28,1.2237836225754606
2020-05-29,1.2301025282768483
2020-06-01,1.2365536300763873
2020-06-02,1.2327180033263185
2020-06-03,1.2320282767686044
2020-06-04,1.2288971032481661
2020-06-05,1.2339328169412938
2020-06-08,1.236928520973987
2020-06-09,1.2434072200354502
2020-06-10,1.2445574478641503
2020-06-11,1.2446136546876911
2020-06-12,1.244550429233505
2020-06-15,1.2339467870546854
2020-06-16,1.2409721012270556
2020-06-17,1.2421024398444724
2020-06-18,1.2464246393172398
2020-06-19,1.2570039342046575
2020-06-22,1.2611808129954905
2020-06-23,1.2709536582988703
2020-06-24,1.2789543886890726
2020-06-29,1.2796537006359416
2020-06-30,1.2922287289111278
2020-07-01,1.3054643617272015
2020-07-02,1.3181003385401102
2020-07-03,1.3308717634157663
2020-07-06,1.3815495520077943
2020-07-07,1.3932445127196498
2020-07-08,1.4054769116602168
2020-07-09,1.4288233487502564
2020-07-10,1.4137569879943583
2020-07-13,1.449214564802273
2020-07-14,1.4407273999839498
2020-07-15,1.4465403138182795
2020-07-16,1.376255996874476
2020-07-17,1.3868869346726553
2020-07-20,1.4071397322782209
2020-07-21,1.4163286790784881
2020-07-22,1.4202409258597273
2020-07-23,1.43625085967023
2020-07-24,1.401462004119853
2020-07-27,1.409229149090492
2020-07-28,1.4094068246197917
2020-07-29,1.4251685493518012
2020-07-30,1.4270212720454294
2020-07-31,1.4341486991801484
2020-08-03,1.4425196729247878
2020-08-04,1.4408297264634553
2020-08-05,1.4460011854849484
2020-08-06,1.443033534035391
2020-08-07,1.4386657501503335
2020-08-10,1.4314894684070631
2020-08-11,1.4218799368343726
2020-08-12,1.412808225211538
2020-08-13,1.4134377138027154
2020-08-14,1.4145454406844171
2020-08-17,1.424645607574628
2020-08-18,1.4252219493326082
2020-08-19,1.419846095867462
2020-08-20,1.4126327199244197
2020-08-21,1.4126050565660717
2020-08-24,1.420106335167636
2020-08-25,1.4227127259057795
2020-08-26,1.418385597569046
2020-08-27,1.4221384828626313
2020-08-28,1.432213055044262
2020-08-31,1.4338685881140962
2020-09-01,1.4389067408711842
2020-09-02,1.4381274815785778
2020-09-03,1.4366520204908626
2020-09-04,1.4282969416570557
2020-09-07,1.4119755141734274
2020-09-08,1.412537804545157
2020-09-09,1.4008739956236025
2020-09-10,1.4044973572248742
2020-09-11,1.409884769189244
2020-09-14,1.4128101550291003
2020-09-15,1.4153616382210907
2020-09-16,1.4190136180039377
2020-09-17,1.41908311142335
2020-09-18,1.423566164077393
2020-09-21,1.4149710579980863
2020-09-22,1.4084676427253702
2020-09-23,1.4105813135642777
2020-09-24,1.4023237752452022
2020-09-25,1.4006481334581808
2020-09-28,1.4044772760466329
2020-09-29,1.403305454493451
2020-09-30,1.4057277601396734
2020-10-09,1.4108482518463872
2020-10-12,1.4265933562495765
2020-10-13,1.435474339824662
2020-10-14,1.4333741878174506
2020-10-15,1.4295088548889552
2020-10-16,1.424520500589833
2020-10-19,1.4161842231481172
2020-10-20,1.4314807406652392
2020-10-21,1.427981512063846
2020-10-22,1.426677111518429
2020-10-23,1.4097914785251335
2020-10-26,1.4160084225964304
2020-10-27,1.4172069282898614
2020-10-28,1.4256501156790062
2020-10-29,1.4300776771401567
2020-10-30,1.4242404936794688
2020-11-02,1.4415499254314834
2020-11-03,1.4484136170741182
2020-11-04,1.4550816383166518
2020-11-05,1.4630002218645077
2020-11-06,1.4638904707746159
2020-11-09,1.4718228258696477
2020-11-10,1.4628159874476234
2020-11-11,1.446466134460685
2020-11-12,1.4531118086651034
2020-11-13,1.4435816503285688
2020-11-16,1.4538460817861134
2020-11-17,1.4486759624145422
2020-11-18,1.444779164345634
2020-11-19,1.44625895529598
2020-11-20,1.4579400272561296
2020-11-23,1.4687039433606548
2020-11-24,1.4589239734828776
2020-11-25,1.454843564487969
2020-11-26,1.4524744906503488
2020-11-27,1.4621798752762887
2020-11-30,1.4613596295916746
2020-12-01,1.4703336099719675
2020-12-02,1.4672698230960914
2020-12-03,1.457724231185326
2020-12-04,1.464272712700375
2020-12-07,1.4544927569383994
2020-12-08,1.4510218730297084
2020-12-09,1.4428844028174006
2020-12-10,1.4425715671151573
2020-12-11,1.4410208065673737
2020-12-14,1.4437834696533456
2020-12-15,1.4504694579894242
2020-12-16,1.4545471594944581
2020-12-17,1.460410672152613
2020-12-18,1.462229585716608
2020-12-21,1.4783885434645199
2020-12-22,1.4716077009552053
2020-12-23,1.482543154226332
2020-12-24,1.4806932516228668
2020-12-25,1.4912605895174946
2020-12-28,1.4954178784174872
2020-12-29,1.4804377206170196
2020-12-30,1.5010916824598615
2020-12-31,1.513704869319424
2021-01-04,1.5401426310338044
2021-01-05,1.5668310030032733
2021-01-06,1.5753997926024728
2021-01-07,1.6085083984906197
2021-01-08,1.5995745357322766
2021-01-11,1.5923528212538915
2021-01-12,1.6292914208190308
2021-01-13,1.6185663954532743
2021-01-14,1.585232187437215
2021-01-15,1.5871224156673291
2021-01-18,1.5941968782257654
2021-01-19,1.5738646370990563
2021-01-20,1.5768414436190783
2021-01-21,1.59098886710303
2021-01-22,1.5892007167894207
2021-01-25,1.5970422363471413
2021-01-26,1.5755250972598063
2021-01-27,1.5818510364177298
2021-01-28,1.5627249857938694
2021-01-29,1.5610865004900651
2021-02-01,1.562285520375771
2021-02-02,1.5663396572376196
2021-02-03,1.564286390411816
2021-02-04,1.5654268102581186
2021-02-05,1.5734185811244055
2021-02-08,1.5811493046238774
2021-02-09,1.5904115939744894
2021-02-10,1.6080428141334637
2021-02-18,1.598420417186715
2021-02-19,1.5905591340029674
2021-02-22,1.565346019201549
2021-02-23,1.5667356952913278
2021-02-24,1.5444201212127417
2021-02-25,1.5480514826746492
2021-02-26,1.5345812209155476
2021-03-01,1.5373871776987187
2021-03-02,1.5318363830678459
2021-03-03,1.5380394252063427
2021-03-04,1.533872038244593
2021-03-05,1.5331558592122667
2021-03-08,1.5332901796539034
2021-03-09,1.5321241104589012
2021-03-10,1.5296396833853332
2021-03-11,1.5326124639599472
2021-03-12,1.5340539959087083
2021-03-15,1.5351994297660274
2021-03-16,1.5360829378373813
2021-03-17,1.5322952280857953
2021-03-18,1.5319290986318104
2021-03-19,1.5261578989281952
2021-03-22,1.528315242321307
2021-03-23,1.527155325197541
2021-03-24,1.5262280256253244
2021-03-25,1.526663226420861
2021-03-26,1.5263913476360582
2021-03-29,1.5283107177184465
2021-03-30,1.528648567594647
2021-03-31,1.526549320427818
2021-04-01,1.5301315244367184
2021-04-02,1.5345061116493222
2021-04-06,1.5305139855805139
2021-04-07,1.5276795497770717
2021-04-08,1.530803532140306
2021-04-09,1.5207278724607063
2021-04-12,1.515137398721352
2021-04-13,1.5130738336137826
2021-04-14,1.5163813142505727
2021-04-15,1.5155939537394776
2021-04-16,1.518917212760267
2021-04-19,1.5300849992494177
2021-04-20,1.5319299205341053
2021-04-21,1.5367082416685705
2021-04-22,1.5367144253146563
2021-04-23,1.5462840321539735
2021-04-26,1.5430969417914033
2021-04-27,1.54525769887774
2021-04-28,1.5589434041090393
2021-04-29,1.5660720204959346
2021-04-30,1.5694267701933207
2021-05-06,1.5571867463640294
2021-05-07,1.5432668774498124
2021-05-10,1.5503709936448224
2021-05-11,1.5516734170519693
2021-05-12,1.55375973523906
2021-05-13,1.5497531417062547
2021-05-14,1.5594052434395718
2021-05-17,1.5717501046424065
2021-05-18,1.5679398210865019
2021-05-19,1.569600447337714
2021-05-20,1.5667052549170088
2021-05-21,1.5604874251078484
2021-05-24,1.5685362307851967
2021-05-25,1.5843942176715125
2021-05-26,1.5858748171787433
2021-05-27,1.5843715951114228
2021-05-28,1.5876799066104517
2021-05-31,1.590156358542654
2021-06-01,1.590993137203712
2021-06-02,1.5844498411037329
2021-06-03,1.5779754198081224
2021-06-04,1.5845544650382772
2021-06-07,1.5786795907619418
2021-06-08,1.5788765825518203
2021-06-09,1.5790281858867723
2021-06-10,1.5871381099435224
2021-06-11,1.5848280600386533
2021-06-15,1.5830284608189933
2021-06-16,1.5710750749691256
2021-06-17,1.577257587863812
2021-06-18,1.5807735782311962
2021-06-21,1.577598751893977
2021-06-22,1.5781334364929318
2021-06-23,1.5781261703437806
2021-06-24,1.5775596355299006
2021-06-25,1.5799329370186483
2021-06-28,1.5829346483269797
2021-06-29,1.5803839865580753
2021-06-30,1.5850527995453014
2021-07-01,1.5799281169902977
2021-07-02,1.5645082089564555
2021-07-05,1.5672556273771039
2021-07-06,1.5597463383042192
2021-07-07,1.565476380430566
2021-07-08,1.5649963714739386
2021-07-09,1.5658620320675571
2021-07-12,1.5672384939244872
2021-07-13,1.5618807205368326
2021-07-14,1.5555691894249253
2021-07-15,1.5607701499035356
2021-07-16,1.5555700441792617
2021-07-19,1.5561910439176192
2021-07-20,1.5563718967152997
2021-07-21,1.5674390530598827
2021-07-22,1.564573912642006
2021-07-23,1.5615141613291563
2021-07-26,1.5471256345329611
2021-07-27,1.5348091649339926
2021-07-28,1.5330065809960247
2021-07-29,1.538046944005307
2021-07-30,1.5430095405127942
2021-08-02,1.5473995724963339
2021-08-03,1.546444521741234
2021-08-04,1.5527512657309128
2021-08-05,1.5510475566940813
2021-08-06,1.5458643001615544
2021-08-09,1.5429976715913627
2021-08-10,1.5423426836159644
2021-08-11,1.5365525848071457
2021-08-12,1.5381977009126053
2021-08-13,1.5334613651943936
2021-08-16,1.534691870581046
2021-08-17,1.5266170640258152
2021-08-18,1.5336460818849125
2021-08-19,1.5276685167337454
2021-08-20,1.5245687446675766
2021-08-23,1.5248469735779426
2021-08-24,1.525524263800303
2021-08-25,1.5279598539885164
2021-08-26,1.524687312767098
2021-08-27,1.5279431659662643
2021-08-30,1.5280359619008417
2021-08-31,1.5357037370010123
2021-09-01,1.535899827535009
2021-09-02,1.5396432506908917
2021-09-03,1.5349632879516715
2021-09-06,1.5374961511103402
2021-09-07,1.5404437084865028
2021-09-08,1.535668230347418
2021-09-09,1.539677727123127
2021-09-10,1.54416165137248
2021-09-13,1.5368349960621954
2021-09-14,1.518959182840073
2021-09-15,1.5114680718583322
2021-09-16,1.5072793710155317
2021-09-17,1.508519808018503
2021-09-22,1.5152101957675457
2021-09-23,1.511411834771118
2021-09-24,1.5121531813496754
2021-09-27,1.5125751906925604
2021-09-28,1.5145105729902129
2021-09-29,1.5121784383476262
2021-09-30,1.515985163780906
2021-10-08,1.524747756985687
2021-10-11,1.5229316816786964
2021-10-12,1.5197980561970246
2021-10-13,1.5217163200695656
2021-10-14,1.516505708667704
2021-10-15,1.5162978427293636
2021-10-18,1.5033094118390644
2021-10-19,1.5069723382644755
2021-10-20,1.5034796885080428
2021-10-21,1.5049299351924375
2021-10-22,1.5094047658490006
2021-10-25,1.5119674022286624
2021-10-26,1.509765845616095
2021-10-27,1.505582169430501
2021-10-28,1.509408274402988
2021-10-29,1.519847665700297
2021-11-01,1.5199880809207942
2021-11-02,1.5143301999874887
2021-11-03,1.5069264848752906
2021-11-04,1.511815909528925
2021-11-05,1.509307344593375
2021-11-08,1.503986241412655
2021-11-09,1.50030338405648
2021-11-10,1.4932612167555355
2021-11-11,1.4986851329467845
2021-11-12,1.4962831768953964
2021-11-15,1.4923871271747566
2021-11-16,1.4895736917639464
2021-11-17,1.486970235403961
2021-11-18,1.4807970276755014
2021-11-19,1.4872868511996467
2021-11-22,1.485146407337557
2021-11-23,1.4834376665295406
2021-11-24,1.4826070467592507
2021-11-25,1.4796420472408822
2021-11-26,1.475835328368716
2021-11-29,1.4764416682303596
2021-11-30,1.4756314516041276
2021-12-01,1.4747234161168115
2021-12-02,1.4758737644035127
2021-12-03,1.4809919532348728
2021-12-06,1.477581037673558
2021-12-07,1.4774011877693607
2021-12-08,1.4846013377422969
2021-12-09,1.49236654394105
2021-12-10,1.4867813637051739
2021-12-13,1.4932728475114734
2021-12-14,1.4853472181556555
2021-12-15,1.478895870597171
2021-12-16,1.4844932856731787
2021-12-17,1.471995037267188
2021-12-20,1.4674286247380797
2021-12-21,1.4749095051568726
2021-12-22,1.474548390611191
2021-12-23,1.4805558233569946
2021-12-24,1.4830760274639911
2021-12-27,1.4801712965840204
2021-12-28,1.4814398454461042
2021-12-29,1.4745228770388712
2021-12-30,1.4780216658821845
2021-12-31,1.4786936066156717
2022-01-04,1.4755803217772807
2022-01-05,1.4703190578597691
2022-01-06,1.4636042163824652
2022-01-07,1.4727226580813695
2022-01-10,1.4748818607023324
2022-01-11,1.4708778684676704
2022-01-12,1.467938646280208
2022-01-13,1.460992023372995
2022-01-14,1.452186564691293
2022-01-17,1.4519733186152792
2022-01-18,1.457052148568279
2022-01-19,1.4584690026899436
2022-01-20,1.4621309145230732
2022-01-21,1.4594496128617362
2022-01-24,1.4522350531994836
2022-01-25,1.4461432921960926
2022-01-26,1.446962016064174
2022-01-27,1.4417122297593905
2022-01-28,1.436226269965365
2022-02-07,1.4453264055192632
2022-02-08,1.4491236558979543
2022-02-09,1.452969620883184
2022-02-10,1.4544085031993885
2022-02-11,1.4568079966486878
2022-02-14,1.4501343906552717
2022-02-15,1.4452026022983293
2022-02-16,1.4474718718824457
2022-02-17,1.4479704379605816
2022-02-18,1.4536633087856727
2022-02-21,1.4506850456725817
2022-02-22,1.4449656645175377
2022-02-23,1.442676226245754
2022-02-24,1.4385116446702308
2022-02-25,1.4370055115432574
2022-02-28,1.4387559191779073
2022-03-01,1.4415117903852388
2022-03-02,1.4432617923390936
2022-03-03,1.4433462347781134
2022-03-04,1.4417349224440612
2022-03-07,1.438995455142434
2022-03-08,1.4326258689329996
2022-03-09,1.4325623150801763
2022-03-10,1.4339042702158216
2022-03-11,1.4341116179876512
2022-03-14,1.431059802159945
2022-03-15,1.421212512135649
2022-03-16,1.4260481504710565
2022-03-17,1.4288046432586765
2022-03-18,1.4297506302599419
2022-03-21,1.4352087815719103
2022-03-22,1.4333985271048184
2022-03-23,1.4302606862619818
2022-03-24,1.4307357435201156
2022-03-25,1.4276055741942493
2022-03-28,1.427559402915191
2022-03-29,1.4302798544684985
2022-03-30,1.4315533703741916
2022-03-31,1.4310378513199153
2022-04-01,1.4327120959448874
2022-04-06,1.4337946347666288
2022-04-07,1.4252574557938578
2022-04-08,1.4282826608716501
2022-04-11,1.415111591850152
2022-04-12,1.4154354294491107
2022-04-13,1.4168977682617072
2022-04-14,1.4258650475379417
2022-04-15,1.4274121328532212
2022-04-18,1.415712432605482
2022-04-19,1.410082807191469
2022-04-20,1.3972408574928559
2022-04-21,1.3932817894484322
2022-04-22,1.3962186307105595
2022-04-25,1.3837714049880177
2022-04-26,1.3839560415358183
2022-04-27,1.3865292997397105
2022-04-28,1.3862200882817863
2022-04-29,1.3972888631166163
2022-05-05,1.3909254753177034
2022-05-06,1.3802647106642032
2022-05-09,1.3757414196103794
2022-05-10,1.379637684662335
2022-05-11,1.382286558468449
2022-05-12,1.382215331723724
2022-05-13,1.3869859487380896
2022-05-16,1.3847467875945332
2022-05-17,1.388740351573035
2022-05-18,1.3874127445497535
2022-05-19,1.3904614263292001
2022-05-20,1.3956091961619514
2022-05-23,1.391459100321859
2022-05-24,1.382939906542864
2022-05-25,1.385126913499036
2022-05-26,1.386371110218208
2022-05-27,1.3859638795618818
2022-05-30,1.3873821130416386
2022-05-31,1.3973951012574946
2022-06-01,1.3936777977042585
2022-06-02,1.3981348739033261
2022-06-06,1.4132417667462367
2022-06-07,1.4150391191473228
2022-06-08,1.4257196723451813
2022-06-09,1.4117175250894076
2022-06-10,1.4259417469672206
2022-06-13,1.412991112065881
2022-06-14,1.4197047608647442
2022-06-15,1.4270663553326937
2022-06-16,1.4229555795289217
2022-06-17,1.431618536314453
2022-06-20,1.4370479282357518
2022-06-21,1.4384449055866328
2022-06-22,1.4266845222456945
2022-06-23,1.440450981799589
2022-06-24,1.4555120642981767
2022-06-27,1.467937313058653
2022-06-28,1.47744357793977
2022-06-29,1.459070874641062
2022-06-30,1.4775930957213823
2022-07-01,1.473032779710147
2022-07-04,1.490981509330337
2022-07-05,1.4895607841493037
2022-07-06,1.469518821097927
2022-07-07,1.4719397717699034
2022-07-08,1.4711503150473912
2022-07-11,1.4595221961397287
2022-07-12,1.4587679275171443
2022-07-13,1.455446441640968
2022-07-14,1.4559012108067497
2022-07-15,1.4500565907573735
2022-07-18,1.4502141711346381
2022-07-19,1.449038991671151
2022-07-20,1.4476735105632745
2022-07-21,1.4475711145259642
2022-07-22,1.4476865817950457
2022-07-25,1.4480000036678082
2022-07-26,1.4455866783222588
2022-07-27,1.4448231837958256
2022-07-28,1.4431240236418001
2022-07-29,1.442552344757303
2022-08-01,1.4415492158293388
2022-08-02,1.43962452462151
2022-08-03,1.4372536295275624
2022-08-04,1.43891686288687
2022-08-05,1.4388765718816827
2022-08-08,1.4399008067436727
2022-08-09,1.4397458692741465
2022-08-10,1.438392784964593
2022-08-11,1.4423144429273658
2022-08-12,1.441992810605727
2022-08-15,1.4380117423704448
2022-08-16,1.4375330565675648
2022-08-17,1.4402953602440312
2022-08-18,1.4352542867191933
2022-08-19,1.4373275055505876
2022-08-22,1.4422151181671885
2022-08-23,1.4390160426340608
2022-08-24,1.4330288121425572
2022-08-25,1.437209885858225
2022-08-26,1.4351881176790506
2022-08-29,1.4328954755355046
2022-08-30,1.4305942002939933
2022-08-31,1.4306717204379755
2022-09-01,1.4271668014122831
2022-09-02,1.4236811517724794
2022-09-05,1.4254266720915274
2022-09-06,1.4276881227517804
2022-09-07,1.4235857717589884
2022-09-08,1.4261779772765342
2022-09-09,1.4351323056778453
2022-09-13,1.4364140218273485
2022-09-14,1.4335010213889738
2022-09-15,1.4362667388273527
2022-09-16,1.4223463048721614
2022-09-19,1.4241219014575666
2022-09-20,1.4189712352502084
2022-09-21,1.414977937054827
2022-09-22,1.4118363434995798
2022-09-23,1.4115317248997405
2022-09-26,1.4116234626782536
2022-09-27,1.4140572346332068
2022-09-28,1.412217589212439
2022-09-29,1.409882009977486
2022-09-30,1.4088440598615397
2022-10-10,1.4033053464485798
2022-10-11,1.4031032491523017
2022-10-12,1.4023457185386408
2022-10-13,1.4022292400684577
2022-10-14,1.4032195438858512
2022-10-17,1.4045855673149834
2022-10-18,1.4043181316641495
2022-10-19,1.4024387584868352
2022-10-20,1.4032171593393354
2022-10-21,1.4037202274632286
2022-10-24,1.4008358025816317
2022-10-25,1.398426290400689
2022-10-26,1.400455220492182
2022-10-27,1.400404701192334
2022-10-28,1.398202696445043
2022-10-31,1.4018934218050803
2022-11-01,1.4041994013600119
2022-11-02,1.406452259840258
2022-11-03,1.403799852100643
2022-11-04,1.409895220325172
2022-11-07,1.4150850700613309
2022-11-08,1.4117227598227673
2022-11-09,1.4104652162763043
2022-11-10,1.405400586943855
2022-11-11,1.4150881494502268
2022-11-14,1.416968312162135
2022-11-15,1.4293178077694675
2022-11-16,1.423114071750309
2022-11-17,1.4186682019604384
2022-11-18,1.4167254514845427
2022-11-21,1.409514678690615
2022-11-22,1.4087522519200701
2022-11-23,1.4049250814266294
2022-11-24,1.4029463285145114
2022-11-25,1.4062966853321885
2022-11-28,1.393979301164533
2022-11-29,1.4100712454138937
2022-11-30,1.408494732837894
2022-12-01,1.4146169441744003
2022-12-02,1.405182271099699
2022-12-05,1.4201261745580993
2022-12-06,1.4234934977979505
2022-12-07,1.4153664595449371
2022-12-08,1.4155721307863816
2022-12-09,1.432316658633551
2022-12-12,1.4177679777755678
2022-12-13,1.4183751658830692
2022-12-14,1.4238621902249295
2022-12-15,1.418483539479324
2022-12-16,1.4277629828237526
2022-12-19,1.4105180346946888
2022-12-20,1.396528790927416
2022-12-21,1.398299434100125
2022-12-22,1.3982265190737218
2022-12-23,1.3986180972650821
2022-12-26,1.3952485376488024
2022-12-27,1.398522906051796
2022-12-28,1.3975872678912242
2022-12-29,1.3953500361031803
2022-12-30,1.3958454777225329
2023-01-03,1.3951534841696995
2023-01-04,1.3962135473869741
2023-01-05,1.4007808638463013
2023-01-06,1.3991878534743833
2023-01-09,1.4005156816480084
2023-01-10,1.4025735099301824
2023-01-11,1.4015980172759213
2023-01-12,1.400508725729352
2023-01-13,1.413500295475869
2023-01-16,1.4229281892106076
2023-01-17,1.418789711154727
2023-01-18,1.4145353391713926
2023-01-19,1.4242275830575406
2023-01-20,1.4267562614725116
2023-01-30,1.427003578236851
2023-01-31,1.4163430291727959
2023-02-01,1.4275958823845698
2023-02-02,1.4211140041694332
2023-02-03,1.411832382511776
2023-02-06,1.3997097995128465
2023-02-07,1.3988969224271537
2023-02-08,1.3986158407214049
2023-02-09,1.4023789998799367
2023-02-10,1.3991522456948138
2023-02-13,1.4023393751198787
2023-02-14,1.4040484036782128
2023-02-15,1.4025695968768277
2023-02-16,1.4010124358284521
2023-02-17,1.3993824309550318
2023-02-20,1.4060442382050113
2023-02-21,1.4078963287224446
2023-02-22,1.4062382106218851
2023-02-23,1.4071037268029885
2023-02-24,1.4020325896689825
2023-02-27,1.400358476007982
2023-02-28,1.4030275970257677
2023-03-01,1.4098322101770615
2023-03-02,1.4092990051636982
2023-03-03,1.411498765610767
2023-03-06,1.408067139817289
2023-03-07,1.4027922175024328
2023-03-08,1.4019857329346033
2023-03-09,1.4009142479091747
2023-03-10,1.397211939709277
2023-03-13,1.403410873393929
2023-03-14,1.4016844191739182
2023-03-15,1.4037235398605192
2023-03-16,1.4005580195037015
2023-03-17,1.4049819345032453
2023-03-20,1.4047642688156572
2023-03-21,1.4040706886196963
2023-03-22,1.406087721030581
2023-03-23,1.4081316919764557
2023-03-24,1.4055364746438836
2023-03-27,1.4014148032005584
2023-03-28,1.3996740667883825
2023-03-29,1.4009222094525855
2023-03-30,1.4013646364417223
2023-03-31,1.4020996295022596
2023-04-03,1.3997866702279507
2023-04-04,1.4039780516720575
2023-04-06,1.4059555202924896
2023-04-07,1.409824550750434
2023-04-10,1.4105450233981482
2023-04-11,1.4125822280098441
2023-04-12,1.4157000184671902
2023-04-13,1.4086736680440428
2023-04-14,1.4126333509347924
2023-04-17,1.4192218081481538
2023-04-18,1.420767953143486
2023-04-19,1.414112553392868
2023-04-20,1.409764704975526
2023-04-21,1.3981932363394811
2023-04-24,1.3957729294155896
2023-04-25,1.3929600584041795
2023-04-26,1.3917036131834597
2023-04-27,1.394507061200755
2023-04-28,1.3948334013805104
2023-05-04,1.3940453373325419
2023-05-05,1.3897054600970653
2023-05-08,1.39620840172814
2023-05-09,1.3919116122064699
2023-05-10,1.3923199273829678
2023-05-11,1.3943398399982534
2023-05-12,1.3916473155682056
2023-05-15,1.395002539377751
2023-05-16,1.3943460759113329
2023-05-17,1.39238264222517
2023-05-18,1.3902458727264961
2023-05-19,1.3881766246025913
2023-05-22,1.3905993695068126
2023-05-23,1.3878026564424133
2023-05-24,1.386042885077075
2023-05-25,1.384430616095004
2023-05-26,1.3838867100226813
2023-05-29,1.3837927377222268
2023-05-30,1.3832970199708285
2023-05-31,1.382427882594832
2023-06-01,1.3822503756952704
2023-06-02,1.382316781957976
2023-06-05,1.3814615868110385
2023-06-06,1.3777061415606717
2023-06-07,1.3776698861358938
2023-06-08,1.3784524018590587
2023-06-09,1.3784722721912135
2023-06-12,1.3786944557078895
2023-06-13,1.3781616416525022
2023-06-14,1.3786199531022127
2023-06-15,1.3818239949244255
2023-06-16,1.3840889437773014
2023-06-19,1.3786578647631154
2023-06-20,1.3787544683386843
2023-06-21,1.3745462195708198
2023-06-26,1.3708034207524673
2023-06-27,1.3740573034401404
2023-06-28,1.3732634850887477
2023-06-29,1.3702464156470384
2023-06-30,1.3723543826419486
2023-07-03,1.374611657532173
2023-07-04,1.3772493355968671
2023-07-05,1.3756061692080082
2023-07-06,1.3733905250771399
2023-07-07,1.3724820438830212
2023-07-10,1.371940408299014
2023-07-11,1.3751632332352581
2023-07-12,1.373685134084861
2023-07-13,1.3784042146009545
2023-07-14,1.376332869681905
2023-07-17,1.370888535787516
2023-07-18,1.371076661719177
2023-07-19,1.3707530584369507
2023-07-20,1.367086014310684
2023-07-21,1.3662427964697368
2023-07-24,1.362352763418984
2023-07-25,1.374686175890415
2023-07-26,1.3730367227744182
2023-07-27,1.3720696485651895
2023-07-28,1.3954393831960974
2023-07-31,1.4058329825609757
2023-08-01,1.3979152929632281
2023-08-02,1.3931894863840357
2023-08-03,1.4008031053578653
2023-08-04,1.40440386630339
2023-08-07,1.3946686281499954
2023-08-08,1.3898081853184336
2023-08-09,1.3870176116164379
2023-08-10,1.387177828587088
2023-08-11,1.368387950934164
2023-08-14,1.3644302788395197
2023-08-15,1.3630457501976234
2023-08-16,1.363097035235942
2023-08-17,1.363201827130291
2023-08-18,1.3630623982851138
2023-08-21,1.36039928385126
2023-08-22,1.3605589937997176
2023-08-23,1.360103644330383
2023-08-24,1.3598900004765417
2023-08-25,1.3603550339480688
2023-08-28,1.3602720784682734
2023-08-29,1.3598954280351288
2023-08-30,1.3599286080847386
2023-08-31,1.3589660298914203
2023-09-01,1.3609847581957852
2023-09-04,1.3648647321949148
2023-09-05,1.3614710695952488
2023-09-06,1.3614331571371288
2023-09-07,1.3597643117112364
2023-09-08,1.3588563955294504
2023-09-11,1.3585367605314609
2023-09-12,1.3576650680045963
2023-09-13,1.3558702533260842
2023-09-14,1.3568375555642251
2023-09-15,1.3564930534371056
2023-09-18,1.3589993911943112
2023-09-19,1.3586633778302912
2023-09-20,1.3569014795870369
2023-09-21,1.3539970174957492
2023-09-22,1.3559987765845256
2023-09-25,1.3558064209039309
2023-09-26,1.3544629852290289
2023-09-27,1.3539171308460813
2023-09-28,1.3536075581071572
2023-10-09,1.3550840175031984
2023-10-10,1.3560039910114674
2023-10-11,1.358449367293027
2023-10-12,1.3593062462884735
2023-10-13,1.3593317610639042
2023-10-16,1.3584378688403618
2023-10-17,1.3606155763784373
2023-10-18,1.3615953556625509
2023-10-19,1.3569907780983104
2023-10-20,1.355353319218049
2023-10-23,1.3570510362057224
2023-10-24,1.3561139649321956
2023-10-25,1.3565650285788042
2023-10-26,1.3563236929575204
2023-10-27,1.3569138903018494
2023-10-30,1.3617923867795891
2023-10-31,1.360799541913623
2023-11-01,1.3606406236691695
2023-11-02,1.358748594592009
2023-11-03,1.3598103576734797
2023-11-06,1.3615906084440896
2023-11-07,1.3594932761406409
2023-11-08,1.3579526567614275
2023-11-09,1.355397257747185
2023-11-10,1.354360300979001
2023-11-13,1.3510019720465647
2023-11-14,1.350925981916227
2023-11-15,1.352910467827827
2023-11-16,1.3494652131458884
2023-11-17,1.3481715836478876
2023-11-20,1.347483083574125
2023-11-21,1.3477200959535216
2023-11-22,1.3469890756915908
2023-11-23,1.346863223827553
2023-11-24,1.3473748438620181
2023-11-27,1.347116769241168
2023-11-28,1.3475552639320199
2023-11-29,1.3479358155176915
2023-11-30,1.3493774601856643
2023-12-01,1.3486978158122445
2023-12-04,1.3499479377663537
2023-12-05,1.3465433501524167
2023-12-06,1.3460191324595954
2023-12-07,1.3457271758536797
2023-12-08,1.3475654716377348
2023-12-11,1.3484480643440804
2023-12-12,1.3483520328264151
2023-12-13,1.347819916232662
2023-12-14,1.347276623076896
2023-12-15,1.3467183174347959
2023-12-18,1.3470185899737264
2023-12-19,1.3465540131044136
2023-12-20,1.3447254675410907
2023-12-21,1.3444561956710537
2023-12-22,1.3440027286514338
2023-12-25,1.3446682025729506
2023-12-26,1.3442755631796417
2023-12-27,1.3450088103877211
2023-12-28,1.345205098520207
2023-12-29,1.3504478361376213
2024-01-02,1.3467673387157566
2024-01-03,1.3446247905898203
2024-01-04,1.3437339956245555
2024-01-05,1.3424465769338527
2024-01-08,1.3366092869671908
2024-01-09,1.3394062030619909
2024-01-10,1.3388594305705592
2024-01-11,1.3388177747157093
2024-01-12,1.3392139485446235
2024-01-15,1.3401316730386088
2024-01-16,1.3425558746004669
2024-01-17,1.3359312398142866
2024-01-18,1.341676459316282
2024-01-19,1.339709176342325
2024-01-22,1.337720003569186
2024-01-23,1.3374715712629726
2024-01-24,1.339616179204259
2024-01-25,1.343177217976401
2024-01-26,1.3450705180427678
2024-01-29,1.342921508224309
2024-01-30,1.3375991221306602
2024-01-31,1.3361275207391503
2024-02-01,1.3345464266776088
2024-02-02,1.3331074263384293
2024-02-05,1.3398563579509286
2024-02-06,1.348286963222281
2024-02-07,1.356790451245784
2024-02-08,1.3584206424548226
2024-02-19,1.3613669027903161
2024-02-20,1.3643720969962572
2024-02-21,1.3745905163677636
2024-02-22,1.3774571109963882
2024-02-23,1.3752657158526547
2024-02-26,1.3648413857159287
2024-02-27,1.3716099306129024
2024-02-28,1.3597913111288604
2024-02-29,1.3746801000410644
2024-03-01,1.3792282543113887
2024-03-04,1.3821861319753082
2024-03-05,1.39027778107652
2024-03-06,1.3854748311899179
2024-03-07,1.379865627906605
2024-03-08,1.3790303873925092
2024-03-11,1.3928979595679636
2024-03-12,1.3972633319767442
2024-03-13,1.394233905408284
2024-03-14,1.3979686399190032
2024-03-15,1.3990561575817688
2024-03-18,1.4083692358672943
2024-03-19,1.4026252447888872
2024-03-20,1.402584802145546
2024-03-21,1.404208479172593
2024-03-22,1.3980589791270224
2024-03-25,1.3966322111252916
2024-03-26,1.399479738618637
2024-03-27,1.3944522128923988
2024-03-28,1.395058958107048
2024-03-29,1.3975814530021542
2024-04-01,1.4035963226660855
2024-04-02,1.4008766022793822
2024-04-03,1.4015780864134388
2024-04-08,1.3965854156903006
2024-04-09,1.3943996478993401
2024-04-10,1.3966275858878094
2024-04-11,1.3990828471867882
2024-04-12,1.3954183433655263
2024-04-15,1.4046033675957972
2024-04-16,1.4046871715453633
2024-04-17,1.4077185996419328
2024-04-18,1.4090644241542853
2024-04-19,1.4088645766563834
2024-04-22,1.4012454042065654
2024-04-23,1.3974581901222896
2024-04-24,1.3976010782754023
2024-04-25,1.4066805069157926
2024-04-26,1.4087946967735148
2024-04-29,1.4157752770580219
2024-04-30,1.4170640444162435
2024-05-06,1.431133223829106
2024-05-07,1.4315063106341817
2024-05-08,1.4226629644493183
2024-05-09,1.4309469613970232
2024-05-10,1.4329999954046004
2024-05-13,1.4329493498752475
2024-05-14,1.4359105903697675
2024-05-15,1.4291045949935783
2024-05-16,1.4341256177977242
2024-05-17,1.4413749845420876
2024-05-20,1.441111063046955
2024-05-21,1.4365264443975694
2024-05-22,1.4366714090973596
2024-05-23,1.4304515029327214
2024-05-24,1.4191358315621165
2024-05-27,1.4212492394285487
2024-05-28,1.4175844411621854
2024-05-29,1.4210550643148319
2024-05-30,1.4203643375066393
2024-05-31,1.4161103375027688
2024-06-03,1.418059861919046
2024-06-04,1.4188137357828363
2024-06-05,1.419131088499852
2024-06-06,1.41972389162489
2024-06-07,1.4177588330207578
2024-06-11,1.4182145582062637
2024-06-12,1.41937123410723
2024-06-13,1.4212303530514412
2024-06-14,1.4208734256831226
2024-06-17,1.4231270612626086
2024-06-18,1.4235426817657146
2024-06-19,1.4232108002026727
2024-06-20,1.4234857404870842
2024-06-21,1.4233018183388206
2024-06-24,1.4230890487762677
2024-06-25,1.4224031066229164
2024-06-26,1.4234902827127769
2024-06-27,1.4237819741550386
2024-06-28,1.4260972472595648
2024-07-01,1.4276479560567603
2024-07-02,1.4287057548739364
2024-07-03,1.427022275070699
2024-07-04,1.4277392622506864
2024-07-05,1.4258119040799557
2024-07-08,1.4283318861631173
2024-07-09,1.4348688876843585
2024-07-10,1.4323369534618522
2024-07-11,1.4358663523425828
2024-07-12,1.437737090097578
2024-07-15,1.4390109901428505
2024-07-16,1.4436399715354113
2024-07-17,1.440945538669824
2024-07-18,1.4404929177352936
2024-07-19,1.4426214384704616
2024-07-22,1.4386252328526814
2024-07-23,1.420993789598019
2024-07-24,1.4159890686341405
2024-07-25,1.4175483136884088
2024-07-26,1.4164396822273708
2024-07-29,1.4109028334088307
2024-07-30,1.4086296913285983
2024-07-31,1.412428662781186
2024-08-01,1.412245896487612
2024-08-02,1.4109767355424665
2024-08-05,1.408612665399491
2024-08-06,1.4096986236531515
2024-08-07,1.408530472303064
2024-08-08,1.4080324749754085
2024-08-09,1.405914159855285
2024-08-12,1.4071974168227053
2024-08-13,1.40720411351606
2024-08-14,1.4071552352455643
2024-08-15,1.4094889360343332
2024-08-16,1.4086371415083647
2024-08-19,1.4072763245601012
2024-08-20,1.4059587991995282
2024-08-21,1.4058075343881262
2024-08-22,1.4054625982386284
2024-08-23,1.4072586127664861
2024-08-26,1.4060346815103688
2024-08-27,1.4066854631233723
2024-08-28,1.4038087057495414
2024-08-29,1.4019869778471892
2024-08-30,1.4028390694436892
2024-09-02,1.3959443340961422
2024-09-03,1.400056815388239
2024-09-04,1.3989733828318294
2024-09-05,1.3997958640742676
2024-09-06,1.39485059728135
2024-09-09,1.3900131003106173
2024-09-10,1.3886415588505203
2024-09-11,1.394548106103194
2024-09-12,1.3934343189057357
2024-09-13,1.391585373916561
2024-09-18,1.3947519602921865
2024-09-19,1.3964243293183685
2024-09-20,1.3938792718460484
2024-09-23,1.394327673505667
2024-09-24,1.4027299678577632
2024-09-25,1.4123273679864192
2024-09-26,1.4413107233069342
2024-09-27,1.4942088359575074
2024-09-30,1.5867417716686514
2024-10-08,1.653500306072458
2024-10-09,1.5597636055436432
2024-10-10,1.5763995984779744
2024-10-11,1.5461792010974438
2024-10-14,1.5645031511730147
2024-10-15,1.5369884416380004
2024-10-16,1.5231082029291914
2024-10-17,1.5037615706373928
2024-10-18,1.535376538043639
2024-10-21,1.542176987298423
2024-10-22,1.552989788570295
2024-10-23,1.559232488730751
2024-10-24,1.5447801581431524
2024-10-25,1.5553455816347266
2024-10-28,1.5591101431141925
2024-10-29,1.5502852499461286
2024-10-30,1.5456015888864292
2024-10-31,1.5497329507386481
2024-11-01,1.5477499352003088
2024-11-04,1.556710012027622
2024-11-05,1.5719654844312554
2024-11-06,1.5668226160114462
2024-11-07,1.5864618296864157
2024-11-08,1.5785623982705248
2024-11-11,1.5809707346908402
2024-11-12,1.5761198874363325
2024-11-13,1.5752357935022419
2024-11-14,1.5599777652500357
2024-11-15,1.5452651404320057
2024-11-18,1.537966045499108
2024-11-19,1.5390890215194937
2024-11-20,1.5386756537065154
2024-11-21,1.53867817887211
2024-11-22,1.5320949214348407
2024-11-25,1.532691738137554
2024-11-26,1.5319603975223572
2024-11-27,1.532121822362478
2024-11-28,1.5320393076825103
2024-11-29,1.5316987181428192
2024-12-02,1.5312538462194036
2024-12-03,1.5310373082916435
2024-12-04,1.531990467993393
2024-12-05,1.531069783350026
2024-12-06,1.532001995607888
2024-12-09,1.5322798930434882
2024-12-10,1.5302969259978458
2024-12-11,1.5313963361177791
2024-12-12,1.5323815533239151
2024-12-13,1.5234322130062647
2024-12-16,1.522615945814651
2024-12-17,1.5234641501507884
2024-12-18,1.5244543932361296
2024-12-19,1.523938648777691
2024-12-20,1.5200423505122302
2024-12-23,1.5223847436118374
2024-12-24,1.527113671107028
2024-12-25,1.526555669770762
2024-12-26,1.5277480506651777
2024-12-27,1.5274141170800628
2024-12-30,1.5285885928154745
2024-12-31,1.525539871343728
2025-01-02,1.5163108487412489
2025-01-03,1.5143752518477855
2025-01-06,1.5145589408643383
2025-01-07,1.5142306374428125
2025-01-08,1.517024964237645
2025-01-09,1.5174569551940964
2025-01-10,1.515235166079648
2025-01-13,1.5123104710456954
2025-01-14,1.5130883997774094
2025-01-15,1.5109795064094564
2025-01-16,1.5132099579994511
2025-01-17,1.5131526465168037
2025-01-20,1.5125571726058489
2025-01-21,1.5124869680700221
2025-01-22,1.511070123967109
2025-01-23,1.510389451373352
2025-01-24,1.5116108021621781
2025-01-27,1.5115440156730033
2025-02-05,1.513775985448616
2025-02-06,1.515044068218883
2025-02-07,1.5203045446050378
2025-02-10,1.5229234859909913
2025-02-11,1.5227996394083627
2025-02-12,1.5309872374774316
2025-02-13,1.53498001688594
2025-02-14,1.5422807267593857
2025-02-17,1.5376067464386882
2025-02-18,1.531907859458299
2025-02-19,1.5404643843336512
2025-02-20,1.5399953548423824
2025-02-21,1.5498505167182424
2025-02-24,1.54693260517069
2025-02-25,1.537786388468914
2025-02-26,1.5452462676683796
2025-02-27,1.5483268104602532
2025-02-28,1.5304249588386754
2025-03-03,1.5299029541827203
2025-03-04,1.527462223284866
2025-03-05,1.5290430189107498
2025-03-06,1.533466427699016
2025-03-07,1.5333400183046266
2025-03-10,1.5307376028847783
2025-03-11,1.5326918615106442
2025-03-12,1.5271233619894464
2025-03-13,1.5267390687048672
2025-03-14,1.5381044198448681
2025-03-17,1.539463933743668
2025-03-18,1.5403684674602938
2025-03-19,1.5438709192807596
2025-03-20,1.534284158945465
2025-03-21,1.5231170365731863
2025-03-24,1.5268140205687426
2025-03-25,1.526139167694104
2025-03-26,1.5258495430504666
2025-03-27,1.5267461814224614
2025-03-28,1.5244081639321847
2025-03-31,1.5217114388083748
2025-04-01,1.5208806866810314
2025-04-02,1.5194077125048808
2025-04-03,1.5207719283981922
2025-04-07,1.512153960388476
2025-04-08,1.5159841588361702
2025-04-09,1.516243274272415
2025-04-10,1.5190277772646439
2025-04-11,1.5148024786272787
2025-04-14,1.5154095331612352
2025-04-15,1.511898597751304
2025-04-16,1.5162299929232597
2025-04-17,1.515386187882869
2025-04-18,1.5131212250188595
2025-04-21,1.5099583689972498
2025-04-22,1.5099767573580232
2025-04-23,1.506420485721532
2025-04-24,1.5081327375732347
2025-04-25,1.506558089605324
2025-04-28,1.5064921661376023
2025-04-29,1.5060216068928243
2025-04-30,1.503793743369172
2025-05-06,1.503344145485516
2025-05-07,1.502193612177919
2025-05-08,1.5024542313180083
2025-05-09,1.5025358514648826
2025-05-12,1.5102817343934685
2025-05-13,1.5129310338270485
2025-05-14,1.5184831154057876
2025-05-15,1.5115411456355667
2025-05-16,1.5065816398843084
2025-05-19,1.502737222590601
2025-05-20,1.5093912841148776
2025-05-21,1.5142507000358996
2025-05-22,1.5145792786676398
2025-05-23,1.5080410811482439
2025-05-26,1.500623609904421
2025-05-27,1.4955798632871304
2025-05-28,1.497620349030097
2025-05-29,1.4957567823428497
2025-05-30,1.492657705414591
2025-06-03,1.4954043924635816
2025-06-04,1.4949963260645078
2025-06-05,1.4925232877460488
2025-06-06,1.4921104473503422
2025-06-09,1.4951862534602058
2025-06-10,1.4944135879378515
2025-06-11,1.4981274413017245
2025-06-12,1.5003618868134405
2025-06-13,1.4989857485381042
2025-06-16,1.498049274756273
2025-06-17,1.4965771436277455
2025-06-18,1.495470010192006
2025-06-19,1.4909993845885599
2025-06-20,1.4930470790608497
2025-06-23,1.4931366802145123
2025-06-24,1.4951663039225516
2025-06-25,1.4992804367020671
2025-06-26,1.4965053538921962
2025-06-27,1.494622366725129
2025-06-30,1.496337787902074
2025-07-01,1.495486165324523
2025-07-02,1.502172523705001
2025-07-03,1.5084973240411623
2025-07-04,1.5102254913564996
2025-07-07,1.5062070746252931
2025-07-08,1.5186891145165595
2025-07-09,1.517129708942406
2025-07-10,1.522869345520545
2025-07-11,1.5211263928036598
2025-07-14,1.523450542718068
2025-07-15,1.520691073589873
2025-07-16,1.5205767120124039
2025-07-17,1.5269012770044408
2025-07-18,1.5301767951745735
2025-07-21,1.5387549460552754
2025-07-22,1.5543959272400272
2025-07-23,1.550997721624928
2025-07-24,1.559790391657942
2025-07-25,1.5470258705870863
2025-07-28,1.5449834961149203
2025-07-29,1.5458468291505216
2025-07-30,1.5481211056703723
2025-07-31,1.5231008428684785
2025-08-01,1.5222030766578567
2025-08-04,1.5200415114998096
2025-08-05,1.522208621112484
2025-08-06,1.52209899528968
2025-08-07,1.5211575459301139
2025-08-08,1.5207613694720779
2025-08-11,1.5216856812991737
2025-08-12,1.5245488038048314
2025-08-13,1.5281102107763542
2025-08-14,1.5260652780961994
2025-08-15,1.5322476795476927
2025-08-18,1.5381229118341027
2025-08-19,1.5333636563844704
2025-08-20,1.5393838836357696
2025-08-21,1.5437049240989693
2025-08-22,1.5512061794121577
2025-08-25,1.5631612206617815
2025-08-26,1.5710525299829365
2025-08-27,1.5517163156930123
2025-08-28,1.558405150610637
2025-08-29,1.5651395065635894
2025-09-01,1.56995973177013
2025-09-02,1.5649193174424523
2025-09-03,1.558072690395439
2025-09-04,1.5445307853641725
2025-09-05,1.567470961351241
2025-09-08,1.5745199021694534
2025-09-09,1.570339633249839
2025-09-10,1.5649155805692425
2025-09-11,1.5787429856946162
2025-09-12,1.575482279217931
2025-09-15,1.581287326433369
2025-09-16,1.5777769280385505
2025-09-17,1.5815473286065818
2025-09-18,1.5715031864379212
2025-09-19,1.574349450878805
2025-09-22,1.5758481391241352
2025-09-23,1.574483148481739
2025-09-24,1.5790583791763344
2025-09-25,1.5837119823675958
2025-09-26,1.5808605280755998
2025-09-29,1.58607923447971
2025-09-30,1.591815527710949
2025-10-09,1.5970418509491315
2025-10-10,1.5853235887317807
2025-10-13,1.581009334743292
2025-10-14,1.5810519855951168
2025-10-15,1.5849501197658828
2025-10-16,1.5866879012945476
2025-10-17,1.5812539066261462
2025-10-20,1.5775247608783867
2025-10-21,1.5788538367850602
2025-10-22,1.5797428788638386
2025-10-23,1.5816047323921574
2025-10-24,1.5795177520452108
2025-10-27,1.5840839367404873
2025-10-28,1.5780958175242237
2025-10-29,1.5875544104466315
2025-10-30,1.589630401529363
2025-10-31,1.5857004384189821
2025-11-03,1.587789739714646
2025-11-04,1.5832585165347983
2025-11-05,1.585538536959037
2025-11-06,1.58605513814351
2025-11-07,1.5917606450042865
2025-11-10,1.6019810592659098
2025-11-11,1.6014703808696924
2025-11-12,1.5968932448208697
2025-11-13,1.6009330198887142
2025-11-14,1.5969152205749573
2025-11-17,1.5895928571384137
2025-11-18,1.5841263080319306
2025-11-19,1.5877490180587803
2025-11-20,1.580743032376805
2025-11-21,1.577116265477917
2025-11-24,1.5737944916156963
2025-11-25,1.5743546144973986
2025-11-26,1.5740068153514961
2025-11-27,1.5743324007400001
2025-11-28,1.5746636717395397
2025-12-01,1.574971207591826
2025-12-02,1.5760475132888645
2025-12-03,1.5757522847742298
2025-12-04,1.5753381749506157
2025-12-05,1.5753000576725324
2025-12-08,1.5750849978291093
2025-12-09,1.572761441036089
2025-12-10,1.5709112950844553
2025-12-11,1.5687338888615885
2025-12-12,1.5723031552674982
2025-12-15,1.5716396732097935
2025-12-16,1.5703553551743294
2025-12-17,1.5723526766330889
2025-12-18,1.570774468011562
2025-12-19,1.5728781545389068
2025-12-22,1.5736834391305987
2025-12-23,1.5720705900413738
2025-12-24,1.5730293847659431
2025-12-25,1.5735512764265156
2025-12-26,1.5767988486604998
2025-12-29,1.5735816320573364
2025-12-30,1.5728334523097613
2025-12-31,1.573882176709572
2026-01-05,1.5744458678494249
2026-01-06,1.5852707539648838
2026-01-07,1.5780506839905495
2026-01-08,1.5753130720615134
2026-01-09,1.5777881623235537
2026-01-12,1.5827631766464565
2026-01-13,1.5746677634538462
2026-01-14,1.5732440733942796
2026-01-15,1.5693898423471784
2026-01-16,1.5663782616071984
2026-01-19,1.561780781758357
2026-01-20,1.5645993104606915
2026-01-21,1.5648894054716476
2026-01-22,1.5640023452190135
2026-01-23,1.5625769287955509
2026-01-26,1.5585488394641744
2026-01-27,1.5565603868668771
2026-01-28,1.556025373978535
2026-01-29,1.5591162926047024
2026-01-30,1.5476760215066558
2026-02-02,1.5441014660068577
2026-02-03,1.549208607937468
2026-02-04,1.5553319324573898
2026-02-05,1.5531269833473842
2026-02-06,1.5511713536870229
2026-02-09,1.5546408641988423
2026-02-10,1.552538907221304
2026-02-11,1.5509449982194903
2026-02-12,1.54841507898777
2026-02-13,1.5422457591580796
2026-02-24,1.541274984701927
2026-02-25,1.5440930926593535
2026-02-26,1.5380204650094973
2026-02-27,1.5375084498948974
2026-03-02,1.5392795697833204
2026-03-03,1.5392949076904272
2026-03-04,1.5396721735450782
2026-03-05,1.5371038311946275
2026-03-06,1.5384490900657188
2026-03-09,1.5423612592343627
2026-03-10,1.5388981231198562
2026-03-11,1.5449423508699782
2026-03-12,1.5460333876577756
2026-03-13,1.5454779393429532
2026-03-16,1.5488844398957318
2026-03-17,1.5477472743770186
2026-03-18,1.5459823198491813
2026-03-19,1.5466865435830555
2026-03-20,1.5493202671036153
2026-03-23,1.5411075538263186
2026-03-24,1.5398714711093004
2026-03-25,1.5389758666700613
2026-03-26,1.5386836835366116
2026-03-27,1.541075746152184
2026-03-30,1.5409184205748836
2026-03-31,1.539746515267157
2026-04-01,1.5394050927904996
2026-04-02,1.538389640448078
2026-04-03,1.5335209484448473
2026-04-07,1.532712098732376
2026-04-08,1.5338226889613022
2026-04-09,1.5352600350027261
2026-04-10,1.5378966893947983
2026-04-13,1.5365126921122336
2026-04-14,1.5384795707543897
2026-04-15,1.5391559993090285
2026-04-16,1.5413917302006697
2026-04-17,1.5363564615018748
2026-04-20,1.5389149027832805
2026-04-21,1.5396608535152716
2026-04-22,1.5400357550095634
2026-04-23,1.5385694783688857
2026-04-24,1.536023523056057
2026-04-27,1.5356746719559031
2026-04-28,1.534572756740222
2026-04-29,1.5368598236497417
2026-04-30,1.537634466198782
2026-05-06,1.5424491054740177
2026-05-07,1.5408132680458173
2026-05-08,1.539285906099588
2026-05-11,1.5465143509519144
2026-05-12,1.5432745573017077
2026-05-13,1.5426994181240066
2026-05-14,1.5338870880217268
2026-05-15,1.5315077426611718
2026-05-18,1.5276577378815828
2026-05-19,1.5277631003417134
2026-05-20,1.5264811994841747
2026-05-21,1.5257893876741146
2026-05-22,1.525914949383427
2026-05-25,1.5274592516151557
2026-05-26,1.526417070277341
2026-05-27,1.5260037524090861
2026-05-28,1.5248532785467028
2026-05-29,1.5221247222092027
2026-06-01,1.5220220138159126
2026-06-02,1.521928126503998
2026-06-03,1.522036118038611
2026-06-04,1.5214763133603864
2026-06-05,1.5214786021047186
2026-06-08,1.523497722063131
2026-06-09,1.5219717567074054
2026-06-10,1.5224746977127634
2026-06-11,1.5232642504853002
2026-06-12,1.52217949761659
2026-06-15,1.5179123355932476
2026-06-16,1.5158150252267384
2026-06-17,1.5150664046855125
2026-06-18,1.5100277429141669
2026-06-22,1.5125189752285764
2026-06-23,1.5101313204152187
2026-06-24,1.5126135316175444
2026-06-25,1.51552860447333
2026-06-26,1.508911597867824
2026-06-29,1.5084535584327803
2026-06-30,1.5107463417290994
2026-07-01,1.5132251019584584
2026-07-02,1.509616310600458
2026-07-03,1.5112244281725467
2026-07-06,1.5149929005040934
2026-07-07,1.511275587979124
2026-07-08,1.5082698918908934
2026-07-09,1.5129420214078122
2026-07-10,1.5125531637501521
2026-07-13,1.5117098282172192
2026-07-14,1.5136640888133495
2026-07-15,1.5215019398339207
2026-07-16,1.5227536348764648
2026-07-17,1.5134936258157539
2026-07-20,1.5236336246187998
2026-07-21,1.51961739658139
2026-07-22,1.5225339563973932
2026-07-23,1.520140688890284
2026-07-24,1.5085646512092843
2026-07-27,1.5149073976516967
2026-07-28,1.5223915458313857
2026-07-29,1.5341482781952327
2026-07-30,1.5548463652719675
2026-07-31,1.549495651377625
2026-08-03,1.5443130152864977
2026-08-04,1.5278346197403596
2026-08-05,1.529195413353431
2026-08-06,1.5207214869678927
2026-08-07,1.5241376182077697
2026-08-10,1.5292865188028972
2026-08-11,1.518227831798333
2026-08-12,1.5219129655812198
2026-08-13,1.5160169927076788
2026-08-14,1.5131254655116508
2026-08-17,1.5131841232807444
2026-08-18,1.5128826262603186
2026-08-19,1.5096346501088382
2026-08-20,1.512227054431533
2026-08-21,1.5101930561694554
2026-08-24,1.5102224149479353
2026-08-25,1.509485206165081
2026-08-26,1.5094573747318412
2026-08-27,1.5096398908735662
2026-08-28,1.5117733750168834
2026-08-31,1.5124545810445982
2026-09-01,1.5148437959184522
2026-09-02,1.5115863429527847
2026-09-03,1.5122482199533727
2026-09-04,1.515818516968328
2026-09-07,1.5101841238710634
2026-09-08,1.5111426393396485
2026-09-09,1.5097177646793802
2026-09-10,1.5087894550110452
2026-09-11,1.506486031864224
2026-09-14,1.5063805137644637
2026-09-15,1.5039258367273056
2026-09-16,1.5021056597640234
2026-09-17,1.501936695172385
2026-09-18,1.5016782748714328
2026-09-21,1.5030663271235023
2026-09-22,1.5032062839166602
2026-09-23,1.5029331180648304
2026-09-24,1.5023551220489748
