date,equity
2018-10-16,1.0
2018-10-17,1.0
2018-10-18,1.0
2018-10-19,1.0
2018-10-22,1.0
2018-10-23,1.0
2018-10-24,1.0
2018-10-25,1.0
2018-10-26,1.0
2018-10-29,1.0
2018-10-30,1.0
2018-10-31,1.0
2018-11-01,1.0
2018-11-02,1.0
2018-11-05,1.0
2018-11-06,1.0
2018-11-07,1.0
2018-11-08,1.0
2018-11-09,1.0
2018-11-12,1.0
2018-11-13,0.999578947368421
2018-11-14,0.9968892701077914
2018-11-15,1.002030650056037
2018-11-16,1.0056710092530545
2018-11-19,1.00957129329338
2018-11-20,0.995977031674368
2018-11-21,1.0001733281042997
2018-11-22,0.9986725690229874
2018-11-23,0.9880740450435009
2018-11-26,0.9890200568496953
2018-11-27,0.9898407885277825
2018-11-28,0.994239645879815
2018-11-29,0.9932266129825017
2018-11-30,0.9937383385033149
2018-12-03,1.005824067984789
2018-12-04,1.0042610884985435
2018-12-05,1.008164193559833
2018-12-06,0.9907183661741275
2018-12-07,0.9924305567816296
2018-12-10,0.9916789604176093
2018-12-11,0.9905931202720599
2018-12-12,0.9908876874673818
2018-12-13,0.995885681733469
2018-12-14,0.9831134132120734
2018-12-17,0.981702599972657
2018-12-18,0.9795260280495589
2018-12-19,0.975609764041897
2018-12-20,0.971633330834599
2018-12-21,0.9704412300589627
2018-12-24,0.9714757644039376
2018-12-25,0.9708312381654255
2018-12-26,0.9702658583198608
2018-12-27,0.9700146676766697
2018-12-28,0.970539977685938
2019-01-02,0.9701876002348508
2019-01-03,0.9700038671126527
2019-01-04,0.9696233020868761
2019-01-07,0.9708227956620392
2019-01-08,0.9708251940045627
2019-01-09,0.971006346156446
2019-01-10,0.9726608075526778
2019-01-11,0.9737533729181498
2019-01-14,0.9723350907399397
2019-01-15,0.9794816658162251
2019-01-16,0.9778550973297037
2019-01-17,0.9765102919872127
2019-01-18,0.9910792080116041
2019-01-21,0.9932658019039452
2019-01-22,0.9827394527930701
2019-01-23,0.9863627569401563
2019-01-24,0.9925936643840809
2019-01-25,0.9993954432897143
2019-01-28,1.0015335726412682
2019-01-29,1.0043931995886308
2019-01-30,0.9984220746781044
2019-01-31,1.009409463501578
2019-02-01,1.0210353469630722
2019-02-11,1.037103180696591
2019-02-12,1.04299877822879
2019-02-13,1.0565982111605805
2019-02-14,1.065646364617842
2019-02-15,1.0470088841105185
2019-02-18,1.0787989734526455
2019-02-19,1.075586835529697
2019-02-20,1.0825072535945068
2019-02-21,1.084880004294508
2019-02-22,1.1045006710263237
2019-02-25,1.1477946050091068
2019-02-26,1.136933142972726
2019-02-27,1.1234234347694168
2019-02-28,1.1337579701493654
2019-03-01,1.157484973806015
2019-03-04,1.1714148913766567
2019-03-05,1.177702478815758
2019-03-06,1.1770519685222003
2019-03-07,1.1531905428917661
2019-03-08,1.1217321608728539
2019-03-11,1.133473758239686
2019-03-12,1.1355894325850222
2019-03-13,1.126969068409694
2019-03-14,1.1247569691294563
2019-03-15,1.1361175781397435
2019-03-18,1.1532331659946709
2019-03-19,1.1463785804653468
2019-03-20,1.1439247959688494
2019-03-21,1.144565363647058
2019-03-22,1.1484767157120395
2019-03-25,1.1297273661478706
2019-03-26,1.1285363071546926
2019-03-27,1.1349970170853432
2019-03-28,1.135285725028955
2019-03-29,1.1477758133457283
2019-04-01,1.1559451610853384
2019-04-02,1.1542018148822653
2019-04-03,1.1622660360633568
2019-04-04,1.1669391235648874
2019-04-08,1.162438589713384
2019-04-09,1.1683153804118396
2019-04-10,1.1780193632366387
2019-04-11,1.153404074630781
2019-04-12,1.15126667260029
2019-04-15,1.150438921290392
2019-04-16,1.165804756819806
2019-04-17,1.1720281587202852
2019-04-18,1.1703264827065305
2019-04-19,1.1785788857530533
2019-04-22,1.1621260848069241
2019-04-23,1.1616038263342532
2019-04-24,1.165784038219743
2019-04-25,1.1565728177131107
2019-04-26,1.146241189520644
2019-04-29,1.1552936808092893
2019-04-30,1.1528323895938806
2019-05-06,1.1355908210289951
2019-05-07,1.1399883492638296
2019-05-08,1.1374856562675697
2019-05-09,1.1370749410544527
2019-05-10,1.1417804263876572
2019-05-13,1.1409645507532533
2019-05-14,1.1405552365742377
2019-05-15,1.1434490998616977
2019-05-16,1.1439725588885978
2019-05-17,1.139132430616581
2019-05-20,1.135341755943025
2019-05-21,1.1372264529578642
2019-05-22,1.1370687803921304
2019-05-23,1.1337624946373677
2019-05-24,1.133567489145247
2019-05-27,1.1346232958435092
2019-05-28,1.1359548868310092
2019-05-29,1.1344926446031605
2019-05-30,1.1346888360271146
2019-05-31,1.1347625604152707
2019-06-03,1.1356601551443457
2019-06-04,1.134263375154716
2019-06-05,1.1355192696008944
2019-06-06,1.1309231098649477
2019-06-10,1.13547792515734
2019-06-11,1.1394253544668327
2019-06-12,1.1365902546489923
2019-06-13,1.12941000782309
2019-06-14,1.1238188542320986
2019-06-17,1.1228339642748026
2019-06-18,1.1231465289058904
2019-06-19,1.1275809847505083
2019-06-20,1.1491467315840251
2019-06-21,1.148595577038721
2019-06-24,1.1505426763765365
2019-06-25,1.1433149780240213
2019-06-26,1.148803719630194
2019-06-27,1.1659802991447716
2019-06-28,1.164943129647015
2019-07-01,1.1947013571638143
2019-07-02,1.1991083604409183
2019-07-03,1.186242994420711
2019-07-04,1.177694961040681
2019-07-05,1.1870499398406162
2019-07-08,1.1661266473088092
2019-07-09,1.1686238686289065
2019-07-10,1.170876489853691
2019-07-11,1.1669918207641947
2019-07-12,1.1698385323134874
2019-07-15,1.1749583567594288
2019-07-16,1.1670977382669008
2019-07-17,1.1671305466911213
2019-07-18,1.1613983580800713
2019-07-19,1.1647247162144487
2019-07-22,1.1654910380913805
2019-07-23,1.1716076473670964
2019-07-24,1.1744085873368733
2019-07-25,1.1814460613761208
2019-07-26,1.186226020815017
2019-07-29,1.1852462571947375
2019-07-30,1.183496109238771
2019-07-31,1.1807404724316684
2019-08-01,1.1774288530554358
2019-08-02,1.1722620324925497
2019-08-05,1.1586521236366274
2019-08-06,1.1568729827234705
2019-08-07,1.1559255950058696
2019-08-08,1.1580051950494985
2019-08-09,1.1544987316804978
2019-08-12,1.1577544493043197
2019-08-13,1.1570176143084947
2019-08-14,1.1581966354693287
2019-08-15,1.1606046161869565
2019-08-16,1.1612635677612666
2019-08-19,1.168925824667683
2019-08-20,1.1704154446522979
2019-08-21,1.1672636911063818
2019-08-22,1.1686523409301097
2019-08-23,1.1739020334421644
2019-08-26,1.1663682002771925
2019-08-27,1.1763524376667107
2019-08-28,1.1762080455975445
2019-08-29,1.173173217227434
2019-08-30,1.1768738521633952
2019-09-02,1.1911364528395285
2019-09-03,1.1923199916057394
2019-09-04,1.1911310206844348
2019-09-05,1.1960483884781128
2019-09-06,1.198065609330347
2019-09-09,1.2000563654309293
2019-09-10,1.195402030459497
2019-09-11,1.1866172786638804
2019-09-12,1.1889576891994067
2019-09-16,1.1859249391590905
2019-09-17,1.1754905584055562
2019-09-18,1.174950064512853
2019-09-19,1.1764558959769345
2019-09-20,1.1793833200938455
2019-09-23,1.1734711479549773
2019-09-24,1.1758470535144845
2019-09-25,1.1728359660375058
2019-09-26,1.1697822543169203
2019-09-27,1.1727717421053225
2019-09-30,1.1691325538300363
2019-10-08,1.170310916676337
2019-10-09,1.1697408431034162
2019-10-10,1.170813154259449
2019-10-11,1.1729558549895642
2019-10-14,1.1738434718018653
2019-10-15,1.1767203202139458
2019-10-16,1.1753419435097805
2019-10-17,1.1778753965609645
2019-10-18,1.173049431963993
2019-10-21,1.1748001890870678
2019-10-22,1.1780071975699813
2019-10-23,1.1762485143431434
2019-10-24,1.1755454361439066
2019-10-25,1.1838449284856944
2019-10-28,1.1859874170910412
2019-10-29,1.188433750242879
2019-10-30,1.1878316991588125
2019-10-31,1.1866744513495793
2019-11-01,1.1928243070035875
2019-11-04,1.1966598528107084
2019-11-05,1.2046162702240992
2019-11-06,1.2012266683886559
2019-11-07,1.2031247603374855
2019-11-08,1.2051583466281033
2019-11-11,1.1952852684100008
2019-11-12,1.197221975965348
2019-11-13,1.2006926305925603
2019-11-14,1.1995731503739953
2019-11-15,1.19485796410415
2019-11-18,1.1957757413781331
2019-11-19,1.203186430042352
2019-11-20,1.1973153608089337
2019-11-21,1.194781521493192
2019-11-22,1.187564526098975
2019-11-25,1.1906316430873365
2019-11-26,1.1926979667369906
2019-11-27,1.1901146084614693
2019-11-28,1.1898835939735712
2019-11-29,1.188599766485459
2019-12-02,1.1937350070085537
2019-12-03,1.197847955995232
2019-12-04,1.196649544958107
2019-12-05,1.198888020456034
2019-12-06,1.202003853078055
2019-12-09,1.2034076235403388
2019-12-10,1.2050080244951142
2019-12-11,1.2025523108156917
2019-12-12,1.1999555290406112
2019-12-13,1.2081187347756397
2019-12-16,1.2082824438613766
2019-12-17,1.214275030401315
2019-12-18,1.2116468691934688
2019-12-19,1.2091878773547218
2019-12-20,1.2084937031045515
2019-12-23,1.2022960638892344
2019-12-24,1.212295891251897
2019-12-25,1.2162887151889819
2019-12-26,1.2175519793705611
2019-12-27,1.2142842067019983
2019-12-30,1.226398542544121
2019-12-31,1.227854657689635
2020-01-02,1.2413810062601591
2020-01-03,1.2385276219195387
2020-01-06,1.233487155225623
2020-01-07,1.2387634438967514
2020-01-08,1.233273893309059
2020-01-09,1.2440533525630124
2020-01-10,1.2430261742071882
2020-01-13,1.2524448964353598
2020-01-14,1.2489873952650967
2020-01-15,1.2483325099636657
2020-01-16,1.246275292226822
2020-01-17,1.2506950366234655
2020-01-20,1.2573861438200082
2020-01-21,1.2422718017621557
2020-01-22,1.246233633753591
2020-01-23,1.2356738793777193
2020-02-03,1.2187077039056724
2020-02-04,1.2318358546991044
2020-02-05,1.246746050057503
2020-02-06,1.2539176322389498
2020-02-07,1.2503590910063882
2020-02-10,1.2531181288830042
2020-02-11,1.2524925949326349
2020-02-12,1.2566505408848556
2020-02-13,1.2558820891336604
2020-02-14,1.257432517008949
2020-02-17,1.2675809359088435
2020-02-18,1.2661740179723233
2020-02-19,1.2647325666182367
2020-02-20,1.2821534544676283
2020-02-21,1.2868329191742556
2020-02-24,1.2880998074347354
2020-02-25,1.2976071357299561
2020-02-26,1.2780382983818945
2020-02-27,1.2802966570528065
2020-02-28,1.2590497852650566
2020-03-02,1.274271049015685
2020-03-03,1.2779821820890194
2020-03-04,1.2745873180856493
2020-03-05,1.2847360776480945
2020-03-06,1.2737569126981951
2020-03-09,1.2520442167591008
2020-03-10,1.2593887016598644
2020-03-11,1.2504256492958274
2020-03-12,1.2450321367332056
2020-03-13,1.242230235893296
2020-03-16,1.2358667773693643
2020-03-17,1.2358342545594336
2020-03-18,1.2352462368077486
2020-03-19,1.2365131275248085
2020-03-20,1.2362247941520523
2020-03-23,1.2345607086193178
2020-03-24,1.2345282201796173
2020-03-25,1.2350945429628621
2020-03-26,1.237996321203716
2020-03-27,1.2363122412159826
2020-03-30,1.2362312437436822
2020-03-31,1.2356430107720568
2020-04-01,1.2327656834002592
2020-04-02,1.2335383078838145
2020-04-03,1.2334531640551731
2020-04-07,1.2394663687812195
2020-04-08,1.2386239015546725
2020-04-09,1.2375133747805134
2020-04-10,1.231541709341335
2020-04-13,1.2309410963882221
2020-04-14,1.2410783932144716
2020-04-15,1.2376804556338725
2020-04-16,1.2421092745235423
2020-04-17,1.251191815562108
2020-04-20,1.2547076683723504
2020-04-21,1.2449342845958569
2020-04-22,1.2526074021478681
2020-04-23,1.250903866404365
2020-04-24,1.244994929863992
2020-04-27,1.2457182762122518
2020-04-28,1.2612728323529205
2020-04-29,1.2634374611670272
2020-04-30,1.2702140965479654
2020-05-06,1.2723036774862506
2020-05-07,1.270461976328779
2020-05-08,1.2767975106514522
2020-05-11,1.275807052314122
2020-05-12,1.2807658788135532
2020-05-13,1.280865354880945
2020-05-14,1.2694094889165717
2020-05-15,1.2647342357598013
2020-05-18,1.2637449422015803
2020-05-19,1.27200831598494
2020-05-20,1.2681820617211474
2020-05-21,1.2638238084346114
2020-05-22,1.2511804787970477
2020-05-25,1.254295876158855
2020-05-26,1.2593002363440482
2020-05-27,1.2584261681471576
2020-05-28,1.254518636891507
2020-05-29,1.2572134452685966
2020-06-01,1.2653969374874006
2020-06-02,1.2614117404138399
2020-06-03,1.2599218241989278
2020-06-04,1.2571818137763693
2020-06-05,1.2667645349564913
2020-06-08,1.2684456705169596
2020-06-09,1.2743575917901884
2020-06-10,1.2773840238887688
2020-06-11,1.274330150657835
2020-06-12,1.2743835192694382
2020-06-15,1.2635777234941254
2020-06-16,1.2726518254628936
2020-06-17,1.2718130807555452
2020-06-18,1.277114664896416
2020-06-19,1.290640849894295
2020-06-22,1.2951153355461007
2020-06-23,1.3060027519149482
2020-06-24,1.3135352829963614
2020-06-29,1.3149972577066664
2020-06-30,1.3292222175641735
2020-07-01,1.3447401018714042
2020-07-02,1.3578921272861497
2020-07-03,1.3723409130739077
2020-07-06,1.4303592191460908
2020-07-07,1.4414481075389445
2020-07-08,1.4553666030518508
2020-07-09,1.480541666749743
2020-07-10,1.464840885785392
2020-07-13,1.5037821512300282
2020-07-14,1.4951614617150053
2020-07-15,1.5011001545440485
2020-07-16,1.4273012371489904
2020-07-17,1.4394479872927224
2020-07-20,1.4712917840997526
2020-07-21,1.484254627214602
2020-07-22,1.4900477182301644
2020-07-23,1.5108195885384317
2020-07-24,1.4662993904658794
2020-07-27,1.4764620361679495
2020-07-28,1.4742283262410951
2020-07-29,1.4926174151016973
2020-07-30,1.4978605484231333
2020-07-31,1.5048638031109458
2020-08-03,1.5164762332407848
2020-08-04,1.5117866678553398
2020-08-05,1.5194928262687724
2020-08-06,1.5116518652423216
2020-08-07,1.5062985936460815
2020-08-10,1.4997996065607628
2020-08-11,1.4892310490138607
2020-08-12,1.4790423348268422
2020-08-13,1.4806407616041635
2020-08-14,1.4826359672252922
2020-08-17,1.4911693396996801
2020-08-18,1.4871974661025418
2020-08-19,1.4770849627034222
2020-08-20,1.4667329690139523
2020-08-21,1.4687292145545388
2020-08-24,1.4732947420529585
2020-08-25,1.4756324199425637
2020-08-26,1.4690476092447011
2020-08-27,1.4676061161465694
2020-08-28,1.479207800076362
2020-08-31,1.4765848948954454
2020-09-01,1.4849329499883843
2020-09-02,1.4861345738320015
2020-09-03,1.4837904024224826
2020-09-04,1.4760877640750787
2020-09-07,1.4619207514702728
2020-09-08,1.464067306154229
2020-09-09,1.4522167518187588
2020-09-10,1.4568081178950059
2020-09-11,1.463642896561274
2020-09-14,1.4666699264826442
2020-09-15,1.4698047535339762
2020-09-16,1.4717772097587596
2020-09-17,1.4722415630610084
2020-09-18,1.4766234162746161
2020-09-21,1.4670063177122332
2020-09-22,1.461086135158476
2020-09-23,1.4638882357864724
2020-09-24,1.4527823125506554
2020-09-25,1.4485572902733599
2020-09-28,1.4523036633154174
2020-09-29,1.4536644641982683
2020-09-30,1.4569816979795907
2020-10-09,1.4676718225181145
2020-10-12,1.4820908478356765
2020-10-13,1.4970330602496873
2020-10-14,1.4919064631051604
2020-10-15,1.4858418897837016
2020-10-16,1.4797335551504587
2020-10-19,1.4696851155922186
2020-10-20,1.4875846854961543
2020-10-21,1.4829162146671016
2020-10-22,1.4813985414816235
2020-10-23,1.4621975466358275
2020-10-26,1.4733752126732813
2020-10-27,1.4736336894752944
2020-10-28,1.483746259238041
2020-10-29,1.4950819612148376
2020-10-30,1.487168008415875
2020-11-02,1.5046362751004654
2020-11-03,1.5122183430492069
2020-11-04,1.519826548900341
2020-11-05,1.5282797236059211
2020-11-06,1.5290682486516414
2020-11-09,1.5378434098828682
2020-11-10,1.5347785548485107
2020-11-11,1.516287445089346
2020-11-12,1.5221412356422144
2020-11-13,1.5075125718074662
2020-11-16,1.516863081030216
2020-11-17,1.5042372490538798
2020-11-18,1.5008173795507376
2020-11-19,1.504102160994647
2020-11-20,1.5053468951320395
2020-11-23,1.5099104335571794
2020-11-24,1.4998294299813457
2020-11-25,1.4910343897509388
2020-11-26,1.4865377908684336
2020-11-27,1.4936072932800484
2020-11-30,1.4920131542151454
2020-12-01,1.5009824586575897
2020-12-02,1.4972892675476261
2020-12-03,1.4893593621152292
2020-12-04,1.4907853272343197
2020-12-07,1.4811364900287354
2020-12-08,1.4805524223201512
2020-12-09,1.4723999195196915
2020-12-10,1.4751180781698443
2020-12-11,1.4735865054515258
2020-12-14,1.4788989051781805
2020-12-15,1.4814845221189867
2020-12-16,1.4872280378873646
2020-12-17,1.492015358747816
2020-12-18,1.493700728547678
2020-12-21,1.510406495056559
2020-12-22,1.5032243451628617
2020-12-23,1.5125141655331291
2020-12-24,1.5104900388496605
2020-12-25,1.521880885720202
2020-12-28,1.5266933357694905
2020-12-29,1.5106639408687854
2020-12-30,1.5335084850468605
2020-12-31,1.5540269927298354
2021-01-04,1.5836162469694202
2021-01-05,1.6126040509168909
2021-01-06,1.6221077339632741
2021-01-07,1.6571476640418752
2021-01-08,1.646229170195453
2021-01-11,1.6350437926694017
2021-01-12,1.6782266637293497
2021-01-13,1.6654963953885664
2021-01-14,1.6241322052693536
2021-01-15,1.6240789714536683
2021-01-18,1.6331243283639953
2021-01-19,1.607409326076749
2021-01-20,1.6202962305794133
2021-01-21,1.6399345117937467
2021-01-22,1.6462136803814595
2021-01-25,1.6591618519251565
2021-01-26,1.6273137709739358
2021-01-27,1.6361904873871815
2021-01-28,1.6092257106923515
2021-01-29,1.603047934617884
2021-02-01,1.6036933943533995
2021-02-02,1.6116123040241328
2021-02-03,1.6107639656259647
2021-02-04,1.6091401551945541
2021-02-05,1.6126612360434252
2021-02-08,1.6214152274381444
2021-02-09,1.632865273263904
2021-02-10,1.660139985175101
2021-02-18,1.6425799398481453
2021-02-19,1.6323919188159697
2021-02-22,1.6070066500072384
2021-02-23,1.6045217456561365
2021-02-24,1.580526027027896
2021-02-25,1.5907026699784828
2021-02-26,1.5738417755642182
2021-03-01,1.5769376002343256
2021-03-02,1.5720250716912512
2021-03-03,1.5806871774216626
2021-03-04,1.574743401021807
2021-03-05,1.5714516086167145
2021-03-08,1.5709408399346716
2021-03-09,1.5693255325213666
2021-03-10,1.5667124143232436
2021-03-11,1.5704024288841423
2021-03-12,1.5725079600341598
2021-03-15,1.573372289100572
2021-03-16,1.5734183030314735
2021-03-17,1.568682644885424
2021-03-18,1.568238085579238
2021-03-19,1.5636903192432257
2021-03-22,1.5659007176439819
2021-03-23,1.5646464049139617
2021-03-24,1.5643770086554765
2021-03-25,1.5648230875553886
2021-03-26,1.5645503798223384
2021-03-29,1.5667544275414977
2021-03-30,1.5671317075928093
2021-03-31,1.5647853410875663
2021-04-01,1.5687033275548083
2021-04-02,1.5765603211975387
2021-04-06,1.5702393137704034
2021-04-07,1.5654672267039567
2021-04-08,1.5692055267979075
2021-04-09,1.5570637157005789
2021-04-12,1.551689576985492
2021-04-13,1.549692209135369
2021-04-14,1.5512463240864698
2021-04-15,1.5488123328741945
2021-04-16,1.5505146918702042
2021-04-19,1.5653462899466843
2021-04-20,1.5680055801783792
2021-04-21,1.5743118313861582
2021-04-22,1.5744761176173023
2021-04-23,1.585561455018783
2021-04-26,1.5803950951793775
2021-04-27,1.5821446490648539
2021-04-28,1.5971632377711202
2021-04-29,1.6086286170356772
2021-04-30,1.6124125673623189
2021-05-06,1.5985501755485454
2021-05-07,1.585179800905746
2021-05-10,1.592835214809329
2021-05-11,1.5945898167018895
2021-05-12,1.596845381705299
2021-05-13,1.5923524910889482
2021-05-14,1.6012394297642727
2021-05-17,1.6116541952843988
2021-05-18,1.6082322947837973
2021-05-19,1.6076281649218882
2021-05-20,1.6036751254913804
2021-05-21,1.5981384170325807
2021-05-24,1.602391255708292
2021-05-25,1.617611595199041
2021-05-26,1.622059405610997
2021-05-27,1.6197803734263927
2021-05-28,1.6212091897919172
2021-05-31,1.6238876068664627
2021-06-01,1.6249027136741478
2021-06-02,1.6156752613450112
2021-06-03,1.6078279615986306
2021-06-04,1.6146645116489884
2021-06-07,1.61204669533289
2021-06-08,1.6101599041555457
2021-06-09,1.6120999579095856
2021-06-10,1.624463472642005
2021-06-11,1.6229856252027495
2021-06-15,1.6203176046024947
2021-06-16,1.6019975377893036
2021-06-17,1.6093824057174073
2021-06-18,1.6135322984406957
2021-06-21,1.6100549474769976
2021-06-22,1.6090173091334918
2021-06-23,1.608323907727904
2021-06-24,1.6106771787244687
2021-06-25,1.613001620898229
2021-06-28,1.6166613669547245
2021-06-29,1.611707606072263
2021-06-30,1.6160757378544084
2021-07-01,1.6115467059115542
2021-07-02,1.5931070094093374
2021-07-05,1.5985561647144453
2021-07-06,1.5875204032211312
2021-07-07,1.5950925678160048
2021-07-08,1.5946740955512504
2021-07-09,1.5936563804773154
2021-07-12,1.5976569935329834
2021-07-13,1.5906327527395934
2021-07-14,1.5801113988593705
2021-07-15,1.5877902807666695
2021-07-16,1.5800335304765363
2021-07-19,1.5816771535562304
2021-07-20,1.5810145042587802
2021-07-21,1.5917729808171874
2021-07-22,1.5869310208365157
2021-07-23,1.5831295381944945
2021-07-26,1.566338329685463
2021-07-27,1.553880512463932
2021-07-28,1.5494480090461653
2021-07-29,1.5541370147318472
2021-07-30,1.5572736980514827
2021-08-02,1.5641649627287906
2021-08-03,1.5643402962825697
2021-08-04,1.5696356156357951
2021-08-05,1.5688290345378446
2021-08-06,1.5644917933109537
2021-08-09,1.5659580945825575
2021-08-10,1.5661773262379088
2021-08-11,1.558158669605971
2021-08-12,1.5599726179797158
2021-08-13,1.5589117936389378
2021-08-16,1.5602718227618844
2021-08-17,1.5499994504343446
2021-08-18,1.5583989857592715
2021-08-19,1.5520847331360588
2021-08-20,1.550654164060617
2021-08-23,1.5505669613252946
2021-08-24,1.5509007440549942
2021-08-25,1.5517581878820883
2021-08-26,1.5458178200397132
2021-08-27,1.5516692952247513
2021-08-30,1.5571570865138646
2021-08-31,1.5651398121714972
2021-09-01,1.5644977617638605
2021-09-02,1.5692247597553444
2021-09-03,1.5647918209750085
2021-09-06,1.5667770864295687
2021-09-07,1.5699595688223318
2021-09-08,1.564567240188769
2021-09-09,1.5699552470994074
2021-09-10,1.575048462786758
2021-09-13,1.5669607390344737
2021-09-14,1.546490006407534
2021-09-15,1.535067809156079
2021-09-16,1.525713282140422
2021-09-17,1.5307910473680428
2021-09-22,1.539069385735265
2021-09-23,1.5359010425766366
2021-09-24,1.536897564630429
2021-09-27,1.5370865372003877
2021-09-28,1.5357857296727324
2021-09-29,1.5333117006157695
2021-09-30,1.5370832379312567
2021-10-08,1.549365832348797
2021-10-11,1.5469117621673727
2021-10-12,1.5447169784373802
2021-10-13,1.5446612074032178
2021-10-14,1.5391436373428866
2021-10-15,1.5399570143641306
2021-10-18,1.5265793230354885
2021-10-19,1.5313561592681793
2021-10-20,1.5228094352298518
2021-10-21,1.5211338181838452
2021-10-22,1.5276577883489175
2021-10-25,1.529306841823444
2021-10-26,1.524124992136434
2021-10-27,1.514280025018009
2021-10-28,1.5117181937441564
2021-10-29,1.5226317853001685
2021-11-01,1.5213419739916898
2021-11-02,1.5151444798124338
2021-11-03,1.507835891009413
2021-11-04,1.5128006143615644
2021-11-05,1.5126262286447651
2021-11-08,1.5083498806651943
2021-11-09,1.505146577973628
2021-11-10,1.4997394119808696
2021-11-11,1.5013551936845864
2021-11-12,1.4990073604706518
2021-11-15,1.4973323372033616
2021-11-16,1.49655995993999
2021-11-17,1.493981067730761
2021-11-18,1.4889678454721516
2021-11-19,1.496962284142571
2021-11-22,1.494592053368558
2021-11-23,1.4949159722508734
2021-11-24,1.4947668091108752
2021-11-25,1.4918173208297418
2021-11-26,1.4873612758916723
2021-11-29,1.4882756939795074
2021-11-30,1.4871884701774178
2021-12-01,1.4868369635995515
2021-12-02,1.489240923653987
2021-12-03,1.4946060790498887
2021-12-06,1.4929045437616415
2021-12-07,1.4935894226538227
2021-12-08,1.5017932949532433
2021-12-09,1.5120140187868498
2021-12-10,1.5060552174139747
2021-12-13,1.5138222668179973
2021-12-14,1.5041923670002462
2021-12-15,1.4962097674657038
2021-12-16,1.502854268534438
2021-12-17,1.4903221088007665
2021-12-20,1.48427092315672
2021-12-21,1.4900577136247943
2021-12-22,1.490473327718742
2021-12-23,1.4956211736591039
2021-12-24,1.4969800553606005
2021-12-27,1.4959265726428883
2021-12-28,1.4979425062365064
2021-12-29,1.4862548114346665
2021-12-30,1.4887547589708894
2021-12-31,1.489604483762052
2022-01-04,1.4845778419517606
2022-01-05,1.476378416817412
2022-01-06,1.4705126316250399
2022-01-07,1.4797395653058982
2022-01-10,1.4813230944342317
2022-01-11,1.4772197910139715
2022-01-12,1.4721026188644217
2022-01-13,1.4660603190061925
2022-01-14,1.4573092056013648
2022-01-17,1.4566046807760133
2022-01-18,1.457531939184619
2022-01-19,1.4563844307158609
2022-01-20,1.4609785957815147
2022-01-21,1.4557921484756822
2022-01-24,1.4485673309587006
2022-01-25,1.4426898238526642
2022-01-26,1.442791805910499
2022-01-27,1.4391709397437447
2022-01-28,1.4354583044189342
2022-02-07,1.4380564393668458
2022-02-08,1.440416022396684
2022-02-09,1.4415445611456816
2022-02-10,1.4517651031832361
2022-02-11,1.4541973230494192
2022-02-14,1.4484404065601815
2022-02-15,1.4435340716993807
2022-02-16,1.444557510717184
2022-02-17,1.4455061093243184
2022-02-18,1.4499548929206387
2022-02-21,1.447631819899633
2022-02-22,1.4434829767471216
2022-02-23,1.4414451646928308
2022-02-24,1.4351713210116435
2022-02-25,1.433834215754579
2022-02-28,1.4365158940731355
2022-03-01,1.4372527371308856
2022-03-02,1.438292810376217
2022-03-03,1.4359053494017526
2022-03-04,1.4334286130952545
2022-03-07,1.4277032319218135
2022-03-08,1.4213452758765877
2022-03-09,1.4206516132537526
2022-03-10,1.4218302650241073
2022-03-11,1.422287321222548
2022-03-14,1.420049127565564
2022-03-15,1.4130845983907303
2022-03-16,1.4186115791584948
2022-03-17,1.421821342722634
2022-03-18,1.4228430766680744
2022-03-21,1.427604177654571
2022-03-22,1.4271477182940184
2022-03-23,1.423650399453282
2022-03-24,1.4241380764574887
2022-03-25,1.4213419800084643
2022-03-28,1.4213002968100588
2022-03-29,1.4257082912516192
2022-03-30,1.4284395460711001
2022-03-31,1.4263287068453872
2022-04-01,1.4306252400581934
2022-04-06,1.4311957347294408
2022-04-07,1.41872377002958
2022-04-08,1.421115252129013
2022-04-11,1.4074880639778637
2022-04-12,1.4109308160437328
2022-04-13,1.4128819897759939
2022-04-14,1.4204148186925591
2022-04-15,1.422475190409349
2022-04-18,1.4105994617606894
2022-04-19,1.404510148047662
2022-04-20,1.392385210312575
2022-04-21,1.3868761738300464
2022-04-22,1.3901621554946617
2022-04-25,1.3762006353578982
2022-04-26,1.3777789042898076
2022-04-27,1.3781863419492788
2022-04-28,1.3795372790602907
2022-04-29,1.3861573147252695
2022-05-05,1.3792775451655936
2022-05-06,1.3677405641093279
2022-05-09,1.3635695456057482
2022-05-10,1.3666449773924332
2022-05-11,1.3667604486064235
2022-05-12,1.3675657614706767
2022-05-13,1.371245956660624
2022-05-16,1.3675943456078432
2022-05-17,1.3727014196401557
2022-05-18,1.3722458855200053
2022-05-19,1.3740659840881237
2022-05-20,1.379280097023545
2022-05-23,1.3759016512876159
2022-05-24,1.3670314877322287
2022-05-25,1.369024093215055
2022-05-26,1.3680592054928127
2022-05-27,1.3665823450941332
2022-05-30,1.3673882234237034
2022-05-31,1.3722114493171647
2022-06-01,1.3685792174090468
2022-06-02,1.3743741803055685
2022-06-06,1.3906674548662707
2022-06-07,1.3892506694493665
2022-06-08,1.4012005295953827
2022-06-09,1.3857740430676604
2022-06-10,1.4005889628992028
2022-06-13,1.3874791120544114
2022-06-14,1.3954284358504674
2022-06-15,1.4045848403077454
2022-06-16,1.3987258865030499
2022-06-17,1.4093810656168235
2022-06-20,1.416044445490557
2022-06-21,1.4175921228537571
2022-06-22,1.4043002177228676
2022-06-23,1.4186418468070643
2022-06-24,1.4343903329834693
2022-06-27,1.446986380770505
2022-06-28,1.4560866241631507
2022-06-29,1.4360401817404225
2022-06-30,1.4559387833707236
2022-07-01,1.4523832711502456
2022-07-04,1.4681891674535015
2022-07-05,1.466648048772936
2022-07-06,1.4438426007490874
2022-07-07,1.4458407914579157
2022-07-08,1.4451220765772974
2022-07-11,1.4340777750865377
2022-07-12,1.431115450786665
2022-07-13,1.4285083353804315
2022-07-14,1.427250370817716
2022-07-15,1.418224712375125
2022-07-18,1.4213017714495826
2022-07-19,1.4173595840138522
2022-07-20,1.4166414648808254
2022-07-21,1.4166285479670906
2022-07-22,1.4167235109357557
2022-07-25,1.4170601184058833
2022-07-26,1.4146868523629699
2022-07-27,1.4138788770024313
2022-07-28,1.4133707655387049
2022-07-29,1.4136396664789166
2022-08-01,1.4161280266197882
2022-08-02,1.415201256451136
2022-08-03,1.4142330472418032
2022-08-04,1.415994215158151
2022-08-05,1.416568270204539
2022-08-08,1.4167566361834232
2022-08-09,1.4167370322224824
2022-08-10,1.4144925898576255
2022-08-11,1.4198444331225166
2022-08-12,1.4194098696044615
2022-08-15,1.4147522703888473
2022-08-16,1.4139494803380777
2022-08-17,1.4182364700752537
2022-08-18,1.413928526207459
2022-08-19,1.410274400503503
2022-08-22,1.4139372708288547
2022-08-23,1.411683708303566
2022-08-24,1.406427923445395
2022-08-25,1.4091728418600167
2022-08-26,1.408773966728223
2022-08-29,1.4072530230365181
2022-08-30,1.4059167296412352
2022-08-31,1.4070875022650893
2022-09-01,1.401681501476602
2022-09-02,1.3979022797881755
2022-09-05,1.3996771736463447
2022-09-06,1.4014178165879196
2022-09-07,1.3979276405617096
2022-09-08,1.4001114444145344
2022-09-09,1.4071553871713174
2022-09-13,1.4100074559312097
2022-09-14,1.4058119915609928
2022-09-15,1.408517029847606
2022-09-16,1.3953548248487018
2022-09-19,1.397071018784791
2022-09-20,1.3948296445450914
2022-09-21,1.3935566554117422
2022-09-22,1.3924105048006574
2022-09-23,1.3927714225525873
2022-09-26,1.3927759045540613
2022-09-27,1.3963078635188793
2022-09-28,1.3943394364546995
2022-09-29,1.3919325972803396
2022-09-30,1.3905959612495724
2022-10-10,1.3845857618932285
2022-10-11,1.3843445938233974
2022-10-12,1.3839851793155342
2022-10-13,1.3829932795851403
2022-10-14,1.3884313648062658
2022-10-17,1.3892360328682016
2022-10-18,1.388653001099678
2022-10-19,1.3870997837963355
2022-10-20,1.3873247201408836
2022-10-21,1.3878720924443813
2022-10-24,1.3827655718584628
2022-10-25,1.3813672720098324
2022-10-26,1.3858042282739098
2022-10-27,1.3861247357802255
2022-10-28,1.3819891462197902
2022-10-31,1.3813768367983232
2022-11-01,1.3850605614095572
2022-11-02,1.3876601251749092
2022-11-03,1.3841511524904384
2022-11-04,1.3940888535554703
2022-11-07,1.3967425009371688
2022-11-08,1.393291740604934
2022-11-09,1.392180661224789
2022-11-10,1.3871144360928969
2022-11-11,1.396592250974998
2022-11-14,1.3980596216441128
2022-11-15,1.4150809871954504
2022-11-16,1.4090215516777318
2022-11-17,1.4023001051087343
2022-11-18,1.4062683843445538
2022-11-21,1.3964818652852966
2022-11-22,1.393974238570512
2022-11-23,1.3880782732890649
2022-11-24,1.3874204187006483
2022-11-25,1.3904317547239389
2022-11-28,1.3802687650328973
2022-11-29,1.3975815584892073
2022-11-30,1.3949187891993484
2022-12-01,1.4062490720194922
2022-12-02,1.3950678982360938
2022-12-05,1.4153372079767295
2022-12-06,1.4214224369764679
2022-12-07,1.4149135090234297
2022-12-08,1.4147296187906822
2022-12-09,1.4319392208599249
2022-12-12,1.4173105374234367
2022-12-13,1.4175071858097583
2022-12-14,1.4228000476840248
2022-12-15,1.41619391318253
2022-12-16,1.424378631550887
2022-12-19,1.4071169565250834
2022-12-20,1.392296161148246
2022-12-21,1.3955742749610531
2022-12-22,1.3961772017171634
2022-12-23,1.3969482497023844
2022-12-26,1.3937448307913758
2022-12-27,1.3981364941651495
2022-12-28,1.3951633095941163
2022-12-29,1.393162344296041
2022-12-30,1.3944778109150815
2023-01-03,1.3920501369233933
2023-01-04,1.3911449939209093
2023-01-05,1.394193619629935
2023-01-06,1.3926589580359743
2023-01-09,1.4047069807915635
2023-01-10,1.4050187708811603
2023-01-11,1.4032135982518876
2023-01-12,1.4002467515828745
2023-01-13,1.4114982265391753
2023-01-16,1.4311009299473438
2023-01-17,1.4275112628476696
2023-01-18,1.4227760827169664
2023-01-19,1.433126412768624
2023-01-20,1.4381774363383546
2023-01-30,1.4378588460282096
2023-01-31,1.4271675820228544
2023-02-01,1.439438574878961
2023-02-02,1.433705326015743
2023-02-03,1.4220608314608467
2023-02-06,1.4095474149401113
2023-02-07,1.4105585564984295
2023-02-08,1.407530843197334
2023-02-09,1.4126090534764038
2023-02-10,1.4087977181312221
2023-02-13,1.412921608985853
2023-02-14,1.4129209704312422
2023-02-15,1.412363686411981
2023-02-16,1.4094495317852784
2023-02-17,1.4069687348487017
2023-02-20,1.415304625212864
2023-02-21,1.4163556027445658
2023-02-22,1.4136877989437466
2023-02-23,1.4144703594107504
2023-02-24,1.4087289624429276
2023-02-27,1.4060118512414903
2023-02-28,1.409115511791311
2023-03-01,1.4151582038722899
2023-03-02,1.4153109931300827
2023-03-03,1.417794799758419
2023-03-06,1.4163161797614126
2023-03-07,1.4114032121001319
2023-03-08,1.4106907548512428
2023-03-09,1.408884577819551
2023-03-10,1.4057481875666153
2023-03-13,1.410604747629544
2023-03-14,1.4091000388278372
2023-03-15,1.410893799086938
2023-03-16,1.4081596159055254
2023-03-17,1.410203864605761
2023-03-20,1.4099853899148838
2023-03-21,1.4092892318727492
2023-03-22,1.4113790474051324
2023-03-23,1.4136487164803795
2023-03-24,1.411085099925357
2023-03-27,1.4070203831104737
2023-03-28,1.4065680304510666
2023-03-29,1.4072014059425726
2023-03-30,1.4079410270699237
2023-03-31,1.4060546821188376
2023-04-03,1.4039165470976724
2023-04-04,1.406899851176673
2023-04-06,1.408083424204809
2023-04-07,1.4130340203242286
2023-04-10,1.414324227325321
2023-04-11,1.416299931214154
2023-04-12,1.4194182330101182
2023-04-13,1.4126477627311518
2023-04-14,1.41660442446512
2023-04-17,1.422649546039662
2023-04-18,1.424849205165773
2023-04-19,1.4187851962251572
2023-04-20,1.4148389577716276
2023-04-21,1.3986834122271
2023-04-24,1.3979846987048687
2023-04-25,1.398399352802145
2023-04-26,1.396263719313729
2023-04-27,1.3972698800565506
2023-04-28,1.397569984793117
2023-05-04,1.396710749154235
2023-05-05,1.3915611568194288
2023-05-08,1.3970667740837173
2023-05-09,1.3922873802940647
2023-05-10,1.3927952272825246
2023-05-11,1.395239925550999
2023-05-12,1.3922298419554169
2023-05-15,1.3949467428801134
2023-05-16,1.3949135722779646
2023-05-17,1.3930678310912572
2023-05-18,1.3916881292301708
2023-05-19,1.3903214781817348
2023-05-22,1.393118134763588
2023-05-23,1.3893111536203877
2023-05-24,1.386324304646965
2023-05-25,1.384439043768908
2023-05-26,1.3838531168000312
2023-05-29,1.3845255123003117
2023-05-30,1.383838467157012
2023-05-31,1.382808638458793
2023-06-01,1.3828884138592636
2023-06-02,1.3816737128421643
2023-06-05,1.3805362579730711
2023-06-06,1.3779235396271072
2023-06-07,1.3784859453938192
2023-06-08,1.3791117288724826
2023-06-09,1.3786494927833843
2023-06-12,1.3783493776813813
2023-06-13,1.3786029076165678
2023-06-14,1.3794934866962387
2023-06-15,1.38320926041045
2023-06-16,1.3867984338907602
2023-06-19,1.3797461667974291
2023-06-20,1.3780757692195431
2023-06-21,1.3715893003992918
2023-06-26,1.3662603312855568
2023-06-27,1.3693346511669322
2023-06-28,1.3678836645104215
2023-06-29,1.366298667069282
2023-06-30,1.368361119329163
2023-07-03,1.371530165087538
2023-07-04,1.37298968714981
2023-07-05,1.3686437656633377
2023-07-06,1.3653425356173683
2023-07-07,1.3636048291841822
2023-07-10,1.3634002383019712
2023-07-11,1.3660814879374186
2023-07-12,1.3652906693495563
2023-07-13,1.3679741196715804
2023-07-14,1.3651528103499084
2023-07-17,1.358756047061155
2023-07-18,1.358273048121545
2023-07-19,1.356819866885491
2023-07-20,1.3534708809589242
2023-07-21,1.3521596527927668
2023-07-24,1.3500385042483947
2023-07-25,1.3597035695003612
2023-07-26,1.3583011923401398
2023-07-27,1.3575792980965284
2023-07-28,1.3818108076066968
2023-07-31,1.388491003427094
2023-08-01,1.3808131912842028
2023-08-02,1.376056660576175
2023-08-03,1.3812191182207791
2023-08-04,1.3816476011142467
2023-08-07,1.3721673656175826
2023-08-08,1.3685896434939837
2023-08-09,1.366243498490003
2023-08-10,1.3657113454806151
2023-08-11,1.3478917247123914
2023-08-14,1.3419159463130093
2023-08-15,1.3435810715507903
2023-08-16,1.3428604131468802
2023-08-17,1.3430116083141148
2023-08-18,1.3424583355270274
2023-08-21,1.3387508595296844
2023-08-22,1.338926675682141
2023-08-23,1.3388680180712136
2023-08-24,1.3386228857347788
2023-08-25,1.3385876588167331
2023-08-28,1.3385060307279517
2023-08-29,1.3380972480077726
2023-08-30,1.3380261142146517
2023-08-31,1.3367020243537313
2023-09-01,1.3374173628507957
2023-09-04,1.3426482525082264
2023-09-05,1.3396516314454499
2023-09-06,1.3377786918141856
2023-09-07,1.3343807609962657
2023-09-08,1.3318209651446202
2023-09-11,1.3331597562602753
2023-09-12,1.3334062327417562
2023-09-13,1.330886495233153
2023-09-14,1.3291977148476404
2023-09-15,1.3299377322055161
2023-09-18,1.3342656172444065
2023-09-19,1.3337863480996979
2023-09-20,1.3301336279941083
2023-09-21,1.3235096113749176
2023-09-22,1.3247873082131416
2023-09-25,1.3239267729472672
2023-09-26,1.321973361941542
2023-09-27,1.3208786053467783
2023-09-28,1.3197407898230928
2023-10-09,1.3198968254939356
2023-10-10,1.3185030133099724
2023-10-11,1.3210747229800475
2023-10-12,1.32209604454422
2023-10-13,1.3217117368115727
2023-10-16,1.319087212492297
2023-10-17,1.321779692289852
2023-10-18,1.3222242205799197
2023-10-19,1.3168026014571679
2023-10-20,1.3154958612677823
2023-10-23,1.3173276044288744
2023-10-24,1.3166721626829527
2023-10-25,1.3175333730120258
2023-10-26,1.3172989812000304
2023-10-27,1.3178721971398746
2023-10-30,1.3224184267911148
2023-10-31,1.3203374547271334
2023-11-01,1.3205802857304239
2023-11-02,1.3181948475921084
2023-11-03,1.320476203597507
2023-11-06,1.3233950833632975
2023-11-07,1.3212239131842556
2023-11-08,1.3191536257057563
2023-11-09,1.3166835504773666
2023-11-10,1.3149664014469091
2023-11-13,1.3122956617535884
2023-11-14,1.3122160457422953
2023-11-15,1.3142487123227502
2023-11-16,1.308955815252492
2023-11-17,1.3082719092824329
2023-11-20,1.307536755608936
2023-11-21,1.3090109384944673
2023-11-22,1.3066193351893607
2023-11-23,1.306573335972303
2023-11-24,1.307084615089761
2023-11-27,1.3066821382637683
2023-11-28,1.3065893752687543
2023-11-29,1.3067142950035688
2023-11-30,1.307466280984128
2023-12-01,1.3068077461208105
2023-12-04,1.3080190397360834
2023-12-05,1.3046509329153606
2023-12-06,1.3047555647091065
2023-12-07,1.3045950129682262
2023-12-08,1.303945010802291
2023-12-11,1.3046594921661552
2023-12-12,1.3043490768966988
2023-12-13,1.3038343257256648
2023-12-14,1.3033087627354698
2023-12-15,1.302768677185724
2023-12-18,1.3030591504445141
2023-12-19,1.302609734864693
2023-12-20,1.3008408631905914
2023-12-21,1.3005461462513577
2023-12-22,1.3005031622017516
2023-12-25,1.3014131945136707
2023-12-26,1.300681652233632
2023-12-27,1.3020430387614335
2023-12-28,1.3018702472577173
2023-12-29,1.3085625710107232
2024-01-02,1.2995723154363714
2024-01-03,1.2974222659894326
2024-01-04,1.2949759028546313
2024-01-05,1.2937216065814807
2024-01-08,1.287657805679309
2024-01-09,1.290928662929106
2024-01-10,1.2903304084311633
2024-01-11,1.290461541040571
2024-01-12,1.2907731868106445
2024-01-15,1.2914228439924762
2024-01-16,1.2942731091684618
2024-01-17,1.2881618468383207
2024-01-18,1.292927813502313
2024-01-19,1.2903843494810245
2024-01-22,1.2869966073806662
2024-01-23,1.287711397447521
2024-01-24,1.2912099934504437
2024-01-25,1.2980233720591239
2024-01-26,1.2998931274428578
2024-01-29,1.2974274353582986
2024-01-30,1.2918412608482692
2024-01-31,1.2902677971030214
2024-02-01,1.2878754994000263
2024-02-02,1.2882647436913814
2024-02-05,1.2947866566911819
2024-02-06,1.3029011942789002
2024-02-07,1.3112463777018304
2024-02-08,1.3129921447653603
2024-02-19,1.3158909033791535
2024-02-20,1.3188235966768866
2024-02-21,1.3296510805753339
2024-02-22,1.3326884477829302
2024-02-23,1.3305682750608419
2024-02-26,1.3205090067614418
2024-02-27,1.3293902963571862
2024-02-28,1.3173882135808874
2024-02-29,1.335976936126612
2024-03-01,1.340904542646219
2024-03-04,1.3418585040205706
2024-03-05,1.350740054654566
2024-03-06,1.3468525428927072
2024-03-07,1.3405663482205916
2024-03-08,1.34026122205763
2024-03-11,1.350222019208556
2024-03-12,1.3553353856758814
2024-03-13,1.3511215205724074
2024-03-14,1.3544603693080044
2024-03-15,1.3550422038809968
2024-03-18,1.359749841446788
2024-03-19,1.3531919255372615
2024-03-20,1.3537043102650261
2024-03-21,1.3538675699956257
2024-03-22,1.3514062703936243
2024-03-25,1.3501776400681913
2024-03-26,1.3530695377919018
2024-03-27,1.349017473644738
2024-03-28,1.3494576317551172
2024-03-29,1.3503980354842007
2024-04-01,1.3566702459426054
2024-04-02,1.3541656714401304
2024-04-03,1.353644640779124
2024-04-08,1.3488707603086123
2024-04-09,1.3476260634866766
2024-04-10,1.3500047265357573
2024-04-11,1.3524049476674207
2024-04-12,1.348680283822103
2024-04-15,1.3563000822119025
2024-04-16,1.3563810042047644
2024-04-17,1.3592611673189234
2024-04-18,1.3603326816235073
2024-04-19,1.359607284052506
2024-04-22,1.350261640834172
2024-04-23,1.3456082838477361
2024-04-24,1.3445821316826791
2024-04-25,1.3500982059179782
2024-04-26,1.350259522712479
2024-04-29,1.3537324710827594
2024-04-30,1.3533442956084132
2024-05-06,1.370734102086228
2024-05-07,1.3717581975572932
2024-05-08,1.3623938239679625
2024-05-09,1.3703597533531757
2024-05-10,1.3725282078722976
2024-05-13,1.3727212042791064
2024-05-14,1.3740811726504305
2024-05-15,1.3678616043644203
2024-05-16,1.3738113013832534
2024-05-17,1.3795232675068876
2024-05-20,1.3807380922221661
2024-05-21,1.375763184997779
2024-05-22,1.3746714591296676
2024-05-23,1.3676114313580021
2024-05-24,1.3562208745645583
2024-05-27,1.3572813810313495
2024-05-28,1.3537337940789016
2024-05-29,1.354395183670722
2024-05-30,1.3528727497227007
2024-05-31,1.3489103786468786
2024-06-03,1.351580842114324
2024-06-04,1.3517020575465553
2024-06-05,1.3520171596522148
2024-06-06,1.3522496454383903
2024-06-07,1.3513435770311208
2024-06-11,1.3515006935367528
2024-06-12,1.351352975114065
2024-06-13,1.3530527654093034
2024-06-14,1.3527129601400754
2024-06-17,1.3548586216349419
2024-06-18,1.355259217009767
2024-06-19,1.3549445504063864
2024-06-20,1.3552063028045536
2024-06-21,1.355031202733325
2024-06-24,1.3548286389534319
2024-06-25,1.3541875071729612
2024-06-26,1.354970832419105
2024-06-27,1.3544129459328509
2024-06-28,1.3560410696739964
2024-07-01,1.355955941664484
2024-07-02,1.3565479484151266
2024-07-03,1.3551893725832698
2024-07-04,1.3557329778496054
2024-07-05,1.353596289059594
2024-07-08,1.3561182342390743
2024-07-09,1.3613176698532015
2024-07-10,1.359924461085057
2024-07-11,1.3619385797240382
2024-07-12,1.3632649280415567
2024-07-15,1.363407280128226
2024-07-16,1.3678789080789102
2024-07-17,1.3671190121191619
2024-07-18,1.3670766203498892
2024-07-19,1.3692872883590803
2024-07-22,1.3653672946244426
2024-07-23,1.346146015256901
2024-07-24,1.3431797855227507
2024-07-25,1.3438186908064476
2024-07-26,1.3426340558819314
2024-07-29,1.3405951585321234
2024-07-30,1.3382217018285667
2024-07-31,1.341424652863743
2024-08-01,1.3391168752623333
2024-08-02,1.3378288570466301
2024-08-05,1.3356788721779578
2024-08-06,1.336702762968145
2024-08-07,1.3352795932269912
2024-08-08,1.3352146144396464
2024-08-09,1.3327158565006092
2024-08-12,1.3337234019834308
2024-08-13,1.3327095560335405
2024-08-14,1.332914858318773
2024-08-15,1.3350929610245243
2024-08-16,1.3348615324315865
2024-08-19,1.3341086451337993
2024-08-20,1.3324804234612755
2024-08-21,1.332274906019711
2024-08-22,1.3326211248301456
2024-08-23,1.3347461130131217
2024-08-26,1.334877384084857
2024-08-27,1.335621360436033
2024-08-28,1.333350276499348
2024-08-29,1.3301379182845365
2024-08-30,1.3358354116177205
2024-09-02,1.3291573697597063
2024-09-03,1.3325222182277094
2024-09-04,1.3316922232457196
2024-09-05,1.3320235425429428
2024-09-06,1.327947152908696
2024-09-09,1.3241718427207685
2024-09-10,1.3230746862279665
2024-09-11,1.3270666517291434
2024-09-12,1.3266144932510746
2024-09-13,1.324715247399811
2024-09-18,1.328007336027446
2024-09-19,1.329475844791274
2024-09-20,1.3275905320252137
2024-09-23,1.3282602756714703
2024-09-24,1.340746662444897
2024-09-25,1.3519374349903472
2024-09-26,1.387183233762378
2024-09-27,1.4423370826036814
2024-09-30,1.5378811778995234
2024-10-08,1.6082109927200952
2024-10-09,1.5085024117491093
2024-10-10,1.526610155661745
2024-10-11,1.4924133236978434
2024-10-14,1.5141199729908459
2024-10-15,1.4824511890854992
2024-10-16,1.4665608572382738
2024-10-17,1.4448721859197728
2024-10-18,1.4837828244743254
2024-10-21,1.4916473714695582
2024-10-22,1.5042485076652712
2024-10-23,1.5123522914884855
2024-10-24,1.4949326467191888
2024-10-25,1.5086496217230385
2024-10-28,1.5150555841784838
2024-10-29,1.5049470222525116
2024-10-30,1.5037694295150001
2024-10-31,1.50645785732974
2024-11-01,1.5040300167144491
2024-11-04,1.5115062930954408
2024-11-05,1.5215274828630436
2024-11-06,1.5169091293391272
2024-11-07,1.535181275120621
2024-11-08,1.5254956086533538
2024-11-11,1.528902985648582
2024-11-12,1.5238482426975484
2024-11-13,1.5231672600265154
2024-11-14,1.5083171085637188
2024-11-15,1.4927360570136086
2024-11-18,1.4867031418423993
2024-11-19,1.4886725771928742
2024-11-20,1.4881479725985491
2024-11-21,1.4886514997891482
2024-11-22,1.4793647574805338
2024-11-25,1.478537925961475
2024-11-26,1.478537925961475
2024-11-27,1.478537925961475
2024-11-28,1.478537925961475
2024-11-29,1.4784990170686867
2024-12-02,1.4783190815825533
2024-12-03,1.4776626405624627
2024-12-04,1.4778965337735719
2024-12-05,1.476950884324678
2024-12-06,1.4772540373758305
2024-12-09,1.4778187628932997
2024-12-10,1.478350164020393
2024-12-11,1.4782905377805502
2024-12-12,1.4803346513357796
2024-12-13,1.4660035379703988
2024-12-16,1.4663842345260985
2024-12-17,1.4671509050422662
2024-12-18,1.4679730271441624
2024-12-19,1.467260268490328
2024-12-20,1.4645928385626168
2024-12-23,1.4659977343783
2024-12-24,1.4705037126115796
2024-12-25,1.4699060165359545
2024-12-26,1.4710965364379927
2024-12-27,1.4708266713418097
2024-12-30,1.472024286105895
2024-12-31,1.4689538144534593
2025-01-02,1.4581236545189313
2025-01-03,1.4565424652449868
2025-01-06,1.4574880122753915
2025-01-07,1.4574839850193115
2025-01-08,1.4588355213459125
2025-01-09,1.459467367981028
2025-01-10,1.4582426894577176
2025-01-13,1.4571289595347323
2025-01-14,1.4578286928851028
2025-01-15,1.4564794440315385
2025-01-16,1.4580542829236345
2025-01-17,1.4580283866683097
2025-01-20,1.4574118869464194
2025-01-21,1.4572600114561411
2025-01-22,1.4536807263488984
2025-01-23,1.4526623046301534
2025-01-24,1.4541744587049108
2025-01-27,1.4530104992287467
2025-02-05,1.4524319623569804
2025-02-06,1.4596855528407129
2025-02-07,1.465854730578034
2025-02-10,1.4691410676053864
2025-02-11,1.467806589023805
2025-02-12,1.4749839757907774
2025-02-13,1.4790954198661452
2025-02-14,1.4870072876154077
2025-02-17,1.4817329497019525
2025-02-18,1.4762936898071162
2025-02-19,1.484721130523295
2025-02-20,1.4847085422517818
2025-02-21,1.4937896383176223
2025-02-24,1.4905366495109906
2025-02-25,1.4826482835258743
2025-02-26,1.488337054019352
2025-02-27,1.4914695558678603
2025-02-28,1.4755762046536385
2025-03-03,1.4763820773922927
2025-03-04,1.472972860957055
2025-03-05,1.4743267293795694
2025-03-06,1.477739778698827
2025-03-07,1.4780433475505002
2025-03-10,1.476855406330678
2025-03-11,1.4788721232865685
2025-03-12,1.474558456397507
2025-03-13,1.4745281680757125
2025-03-14,1.484860604437899
2025-03-17,1.4861829199912806
2025-03-18,1.486628825030601
2025-03-19,1.4898832514894942
2025-03-20,1.4801307232907064
2025-03-21,1.4687124980569823
2025-03-24,1.4723827549369606
2025-03-25,1.470664685767474
2025-03-26,1.469646452170088
2025-03-27,1.4723960956655144
2025-03-28,1.4710719868273872
2025-03-31,1.4683508805946106
2025-04-01,1.4678420856616168
2025-04-02,1.465866741260459
2025-04-03,1.4649763296123437
2025-04-07,1.4548662225235904
2025-04-08,1.4585159564045307
2025-04-09,1.458869597869149
2025-04-10,1.4609913809316073
2025-04-11,1.4571754629322824
2025-04-14,1.45788721608862
2025-04-15,1.455436337326536
2025-04-16,1.4590860720189405
2025-04-17,1.4583127768317292
2025-04-18,1.4563307281032538
2025-04-21,1.4532383964499516
2025-04-22,1.4535437156125852
2025-04-23,1.4508357199087767
2025-04-24,1.4509376348771976
2025-04-25,1.4495488281725157
2025-04-28,1.4464399342179441
2025-04-29,1.4447351901356407
2025-04-30,1.4439476762276175
2025-05-06,1.4475493959860455
2025-05-07,1.4478859035476952
2025-05-08,1.448458565760822
2025-05-09,1.4491847448710258
2025-05-12,1.4576940250391717
2025-05-13,1.4593958269275622
2025-05-14,1.467092781140152
2025-05-15,1.4586657084299446
2025-05-16,1.4538686518861912
2025-05-19,1.4506813743595057
2025-05-20,1.4572492362434293
2025-05-21,1.4619632408196037
2025-05-22,1.4619635382253204
2025-05-23,1.4583958064056943
2025-05-26,1.4486215850401627
2025-05-27,1.4442424269617404
2025-05-28,1.447453011029418
2025-05-29,1.4441322444735387
2025-05-30,1.443608283014968
2025-06-03,1.4454515310590788
2025-06-04,1.4449155369662459
2025-06-05,1.4429330558847198
2025-06-06,1.4420904007028805
2025-06-09,1.4456609596108734
2025-06-10,1.4444885308149604
2025-06-11,1.4464746163394333
2025-06-12,1.4502421111701682
2025-06-13,1.448787038550441
2025-06-16,1.4476747663763492
2025-06-17,1.446329761972015
2025-06-18,1.4452714919352683
2025-06-19,1.4412205903860495
2025-06-20,1.443121616172242
2025-06-23,1.4437490188435957
2025-06-24,1.4449919480526003
2025-06-25,1.4505561353833114
2025-06-26,1.4482170057637613
2025-06-27,1.4479070668783343
2025-06-30,1.4500459320673307
2025-07-01,1.44920928202899
2025-07-02,1.4551747565229582
2025-07-03,1.4624574997110684
2025-07-04,1.464343747415479
2025-07-07,1.4597135553374736
2025-07-08,1.46957521367213
2025-07-09,1.4681637251080235
2025-07-10,1.4742659254212824
2025-07-11,1.4722429889263506
2025-07-14,1.474722704195773
2025-07-15,1.473017097977049
2025-07-16,1.472824131543071
2025-07-17,1.4787755100985525
2025-07-18,1.4816905212621503
2025-07-21,1.4899351216273655
2025-07-22,1.5048822773950636
2025-07-23,1.502536277724575
2025-07-24,1.5117902350592873
2025-07-25,1.4988911316561444
2025-07-28,1.5016216011689758
2025-07-29,1.5020044989377501
2025-07-30,1.5036390596648164
2025-07-31,1.4814607431799993
2025-08-01,1.4800805838789852
2025-08-04,1.4787144139367603
2025-08-05,1.48114681291302
2025-08-06,1.4815099016367157
2025-08-07,1.4821191256104715
2025-08-08,1.4830531617536067
2025-08-11,1.4831665804661462
2025-08-12,1.485732042395204
2025-08-13,1.4897629108577979
2025-08-14,1.48824474450368
2025-08-15,1.4934125088235657
2025-08-18,1.497361390266251
2025-08-19,1.489680898717898
2025-08-20,1.4958641337925522
2025-08-21,1.5007636297465332
2025-08-22,1.5098236936005232
2025-08-25,1.5259483521087946
2025-08-26,1.531329867582378
2025-08-27,1.5085853137993683
2025-08-28,1.516199307646209
2025-08-29,1.5280489399241832
2025-09-01,1.5329863900346967
2025-09-02,1.5270323534007522
2025-09-03,1.5218575886008894
2025-09-04,1.509764128431037
2025-09-05,1.5312980327303065
2025-09-08,1.536447554626326
2025-09-09,1.5328982257684223
2025-09-10,1.5274174811068804
2025-09-11,1.537132584432785
2025-09-12,1.5339732110851554
2025-09-15,1.5382280524110663
2025-09-16,1.53593515406791
2025-09-17,1.5373758161907842
2025-09-18,1.528522686345935
2025-09-19,1.53042129052182
2025-09-22,1.532817593939352
2025-09-23,1.5309002588629175
2025-09-24,1.5364438636798012
2025-09-25,1.540339172667193
2025-09-26,1.5360306289793126
2025-09-29,1.5398289212869842
2025-09-30,1.5410649406720283
2025-10-09,1.5493486147991715
2025-10-10,1.539497544130229
2025-10-13,1.5317215978004517
2025-10-14,1.5335052440589645
2025-10-15,1.5373713509468518
2025-10-16,1.5401060365380999
2025-10-17,1.5334716162389173
2025-10-20,1.5293611920644798
2025-10-21,1.53104138966952
2025-10-22,1.5320266468034907
2025-10-23,1.5342973866258587
2025-10-24,1.532572259537977
2025-10-27,1.5364223442638159
2025-10-28,1.5307098059485067
2025-10-29,1.5409737304084088
2025-10-30,1.5437990895349347
2025-10-31,1.5377501671800997
2025-11-03,1.5401202653099377
2025-11-04,1.5360586682920498
2025-11-05,1.5383239170346366
2025-11-06,1.5387952514512833
2025-11-07,1.5441073030090655
2025-11-10,1.553058764394699
2025-11-11,1.552183482427155
2025-11-12,1.5483845214619119
2025-11-13,1.5604931931376573
2025-11-14,1.5558449253979991
2025-11-17,1.54921763989005
2025-11-18,1.5439356717147077
2025-11-19,1.5464914561604761
2025-11-20,1.542105556277702
2025-11-21,1.5389440721167131
2025-11-24,1.536418667539232
2025-11-25,1.5370667252225645
2025-11-26,1.5372591062798338
2025-11-27,1.5377203799314672
2025-11-28,1.537601444491199
2025-12-01,1.5383164776267053
2025-12-02,1.5392752098335931
2025-12-03,1.5377250926506436
2025-12-04,1.5381066749942351
2025-12-05,1.5382981492243784
2025-12-08,1.538903572989505
2025-12-09,1.5366848711178502
2025-12-10,1.5365093718125227
2025-12-11,1.534319314609901
2025-12-12,1.5390015217933992
2025-12-15,1.5354237413907414
2025-12-16,1.531689772651116
2025-12-17,1.5333230373890536
2025-12-18,1.531491706265286
2025-12-19,1.5335517299671486
2025-12-22,1.5356054414899707
2025-12-23,1.5335499813589046
2025-12-24,1.5343342928483998
2025-12-25,1.5346520444319576
2025-12-26,1.5388723065835201
2025-12-29,1.5337269943825647
2025-12-30,1.5331947986488341
2025-12-31,1.5343450839032413
2026-01-05,1.5350697629071406
2026-01-06,1.5449334745958583
2026-01-07,1.5376423032257276
2026-01-08,1.5344226767254705
2026-01-09,1.5369497100231537
2026-01-12,1.5446025764994689
2026-01-13,1.53668012731246
2026-01-14,1.5343691203908474
2026-01-15,1.5313188161176043
2026-01-16,1.5284701806391068
2026-01-19,1.5246470469861733
2026-01-20,1.5257511117498042
2026-01-21,1.5264001377936964
2026-01-22,1.5251136546049733
2026-01-23,1.523637596226651
2026-01-26,1.521982275838963
2026-01-27,1.5197446313694802
2026-01-28,1.5183539392668919
2026-01-29,1.519963032371031
2026-01-30,1.5091697045458021
2026-02-02,1.5072217751118413
2026-02-03,1.509910319005299
2026-02-04,1.513745629884804
2026-02-05,1.5144373901746246
2026-02-06,1.5115777552180378
2026-02-09,1.5124671068658007
2026-02-10,1.5106529579034793
2026-02-11,1.5112751538931053
2026-02-12,1.5095302854763077
2026-02-13,1.5037696542485561
2026-02-24,1.5035303875583468
2026-02-25,1.5044870191858086
2026-02-26,1.4994313954177065
2026-02-27,1.4983493531738472
2026-03-02,1.498540246959508
2026-03-03,1.4989181836286718
2026-03-04,1.4992855535502985
2026-03-05,1.4967216068528912
2026-03-06,1.497384263756743
2026-03-09,1.5014434733769706
2026-03-10,1.4980180547581252
2026-03-11,1.5035542089315095
2026-03-12,1.5049861018765942
2026-03-13,1.504259451344397
2026-03-16,1.5063092559828402
2026-03-17,1.5052388774260472
2026-03-18,1.5027200471676316
2026-03-19,1.5021071659237213
2026-03-20,1.5045379469151285
2026-03-23,1.494690696884443
2026-03-24,1.493491843934096
2026-03-25,1.4926111560112933
2026-03-26,1.4918266260326656
2026-03-27,1.493553591276655
2026-03-30,1.4928002541438388
2026-03-31,1.4914556625624493
2026-04-01,1.491650730094503
2026-04-02,1.4906757341579615
2026-04-03,1.4861541309491884
2026-04-07,1.4853322726387137
2026-04-08,1.4864768140420497
2026-04-09,1.4880419751601486
2026-04-10,1.4901017306507678
2026-04-13,1.4897278291543101
2026-04-14,1.4904549082404155
2026-04-15,1.4901449175527424
2026-04-16,1.4921176311271163
2026-04-17,1.486985604746384
2026-04-20,1.4889562681520232
2026-04-21,1.4899924820100574
2026-04-22,1.4908018222831567
2026-04-23,1.4881117593590854
2026-04-24,1.4850893420323403
2026-04-27,1.4847461103489235
2026-04-28,1.4838909069774735
2026-04-29,1.4860986914518448
2026-04-30,1.486042282887458
2026-05-06,1.4895102215530607
2026-05-07,1.4863425263459247
2026-05-08,1.4836540026565603
2026-05-11,1.4912534823688304
2026-05-12,1.4875142644223591
2026-05-13,1.4868713940919298
2026-05-14,1.4775378491121574
2026-05-15,1.4766985130620311
2026-05-18,1.4720281018860195
2026-05-19,1.471876816438937
2026-05-20,1.4698760815499816
2026-05-21,1.4697302339778022
2026-05-22,1.4691839983804487
2026-05-25,1.4708910853931823
2026-05-26,1.4698875003629865
2026-05-27,1.4694508081236777
2026-05-28,1.4682645344802616
2026-05-29,1.46884889494253
2026-06-01,1.470421188073594
2026-06-02,1.470530352996548
2026-06-03,1.4706168589558473
2026-06-04,1.470072876876897
2026-06-05,1.469737849155825
2026-06-08,1.4715102912012676
2026-06-09,1.4699494688190333
2026-06-10,1.4688590646331838
2026-06-11,1.469534391883249
2026-06-12,1.4690258573942314
2026-06-15,1.465123806411504
2026-06-16,1.46149397235835
2026-06-17,1.4588379367009559
2026-06-18,1.4556257111907889
2026-06-22,1.4574049329696785
2026-06-23,1.4550430097592477
2026-06-24,1.457380942003129
2026-06-25,1.459656106670651
2026-06-26,1.4516282825388156
2026-06-29,1.4560867950826473
2026-06-30,1.4560507011349966
2026-07-01,1.4613911825463621
2026-07-02,1.460840712491245
2026-07-03,1.4625249753896346
2026-07-06,1.4662229501228214
2026-07-07,1.4619840124298216
2026-07-08,1.4585635601671971
2026-07-09,1.4640215990838579
2026-07-10,1.4620530062378314
2026-07-13,1.4595170782980236
2026-07-14,1.4658716501596623
2026-07-15,1.4771545372564034
2026-07-16,1.478210245593474
2026-07-17,1.4652713373840789
2026-07-20,1.4796694085963427
2026-07-21,1.475636559170452
2026-07-22,1.4807592536009995
2026-07-23,1.4773765489707031
2026-07-24,1.464273186126445
2026-07-27,1.4713645239883884
2026-07-28,1.4791789789771246
2026-07-29,1.4911280441886376
2026-07-30,1.512106006587155
2026-07-31,1.5067361845192697
2026-08-03,1.5041206546761041
2026-08-04,1.4889158837211816
2026-08-05,1.4884809638102845
2026-08-06,1.4782569488401553
2026-08-07,1.4799793587042094
2026-08-10,1.483542066386156
2026-08-11,1.474116359329587
2026-08-12,1.4777810357346985
2026-08-13,1.4732171661963898
2026-08-14,1.4708617805835347
2026-08-17,1.4698160785236343
2026-08-18,1.4693055422560275
2026-08-19,1.466900657815378
2026-08-20,1.4691329615925295
2026-08-21,1.4663178908506245
2026-08-24,1.466542835857423
2026-08-25,1.467904075218155
2026-08-26,1.468776229638749
2026-08-27,1.4687053704637976
2026-08-28,1.4702236220429983
2026-08-31,1.4703116789344275
2026-09-01,1.4731200016304042
2026-09-02,1.4701879494727341
2026-09-03,1.4711799498956357
2026-09-04,1.4746653945330686
2026-09-07,1.4692018598483298
2026-09-08,1.470055685380471
2026-09-09,1.4684739012814272
2026-09-10,1.4677582540960963
2026-09-11,1.4659179498584682
2026-09-14,1.4651734659032614
2026-09-15,1.4618025283151497
2026-09-16,1.4603328177321206
2026-09-17,1.4602381172940802
2026-09-18,1.4597188484632178
2026-09-21,1.4611210010216586
2026-09-22,1.4611837741236742
2026-09-23,1.4607782768513156
2026-09-24,1.4602368978661693
