date,equity
2018-10-16,1.0
2018-10-17,1.0
2018-10-18,1.0
2018-10-19,1.0
2018-10-22,1.0
2018-10-23,1.0
2018-10-24,1.0
2018-10-25,1.0
2018-10-26,1.0
2018-10-29,1.0
2018-10-30,1.0
2018-10-31,1.0
2018-11-01,1.0
2018-11-02,1.0
2018-11-05,1.0
2018-11-06,1.0
2018-11-07,1.0
2018-11-08,1.0
2018-11-09,1.0
2018-11-12,1.0
2018-11-13,0.999578947368421
2018-11-14,0.9951735243574338
2018-11-15,1.0017068103745541
2018-11-16,1.0075722847028352
2018-11-19,1.0124771045451342
2018-11-20,0.9915068937908714
2018-11-21,0.9985983942494241
2018-11-22,0.9968785888636806
2018-11-23,0.981509986255991
2018-11-26,0.9832832260294506
2018-11-27,0.9844001883210421
2018-11-28,0.9918014312092295
2018-11-29,0.9899910712222618
2018-11-30,0.9921306847305582
2018-12-03,1.022509687627751
2018-12-04,1.0206038903846169
2018-12-05,1.0317681451112148
2018-12-06,1.0043629274910917
2018-12-07,1.0050668959528235
2018-12-10,1.0006559702929692
2018-12-11,1.0001040258927034
2018-12-12,1.0007298517649503
2018-12-13,1.0095696645379664
2018-12-14,0.9914086958609906
2018-12-17,0.9900507184814488
2018-12-18,0.9859060911336157
2018-12-19,0.9758132620508442
2018-12-20,0.9681849557555527
2018-12-21,0.9605654175853473
2018-12-24,0.9617523698380808
2018-12-25,0.96077913163596
2018-12-26,0.9603661318683403
2018-12-27,0.9599649293220394
2018-12-28,0.9610723830526767
2019-01-02,0.9602289609540045
2019-01-03,0.9600185927539338
2019-01-04,0.9592628908144544
2019-01-07,0.9613102989768336
2019-01-08,0.961485298056558
2019-01-09,0.962027469329877
2019-01-10,0.9635901584854145
2019-01-11,0.9661351120041216
2019-01-14,0.9632170009799889
2019-01-15,0.9757878567319065
2019-01-16,0.9720735958795387
2019-01-17,0.9700847599913213
2019-01-18,0.9964445490236924
2019-01-21,1.0088200759949775
2019-01-22,0.9848783544965948
2019-01-23,0.9933236505946059
2019-01-24,1.0082670056351535
2019-01-25,1.0211794965894372
2019-01-28,1.0295370352517654
2019-01-29,1.0412097481039106
2019-01-30,1.0287651557124045
2019-01-31,1.0511565469706523
2019-02-01,1.070917158043933
2019-02-11,1.1029683178528675
2019-02-12,1.1164020223894804
2019-02-13,1.1433445816939116
2019-02-14,1.1587651056237764
2019-02-15,1.1263263885757568
2019-02-18,1.1883495702733635
2019-02-19,1.1801032748045177
2019-02-20,1.197150062215098
2019-02-21,1.1978091429431013
2019-02-22,1.2241305290256816
2019-02-25,1.3048287662927578
2019-02-26,1.2814387445059596
2019-02-27,1.2596788148809506
2019-02-28,1.2746033416447715
2019-03-01,1.3225428649055382
2019-03-04,1.348649255827661
2019-03-05,1.3574490187449038
2019-03-06,1.3589743742275715
2019-03-07,1.3148484938336584
2019-03-08,1.2500227785065507
2019-03-11,1.2720303056731095
2019-03-12,1.2731557920321683
2019-03-13,1.2593859799821352
2019-03-14,1.2539482067768735
2019-03-15,1.2740479802846358
2019-03-18,1.3034498941536128
2019-03-19,1.2925187285604864
2019-03-20,1.2888664271178163
2019-03-21,1.2894354457416057
2019-03-22,1.2945924807149334
2019-03-25,1.254615423147058
2019-03-26,1.2536048985717987
2019-03-27,1.2626101747528766
2019-03-28,1.2630501906352645
2019-03-29,1.2827848946366365
2019-04-01,1.2956614843966614
2019-04-02,1.2933750000239947
2019-04-03,1.3072119408187743
2019-04-04,1.3175552550279848
2019-04-08,1.3140618475184238
2019-04-09,1.3239208678010352
2019-04-10,1.341098177067034
2019-04-11,1.3001559810524788
2019-04-12,1.2935423772222099
2019-04-15,1.2943163386304393
2019-04-16,1.318949974027272
2019-04-17,1.3282400678367852
2019-04-18,1.3265828735085199
2019-04-19,1.3411232844594807
2019-04-22,1.3143379969206908
2019-04-23,1.313386054332555
2019-04-24,1.3185461358276296
2019-04-25,1.3034628215805497
2019-04-26,1.2881595363917502
2019-04-29,1.3015734735238473
2019-04-30,1.2972029650968373
2019-05-06,1.2711994627686913
2019-05-07,1.27794016343002
2019-05-08,1.274332096198252
2019-05-09,1.274218429896788
2019-05-10,1.280918798044747
2019-05-13,1.2796890705525183
2019-05-14,1.2797119937883834
2019-05-15,1.2845062015480222
2019-05-16,1.2849047594277356
2019-05-17,1.2775179344444827
2019-05-20,1.2712493840771497
2019-05-21,1.2740302649616206
2019-05-22,1.273257710268091
2019-05-23,1.2681696095563342
2019-05-24,1.2680868669336367
2019-05-27,1.269486155444482
2019-05-28,1.2716825601750499
2019-05-29,1.2698380084570415
2019-05-30,1.2704857321470526
2019-05-31,1.270502704140928
2019-06-03,1.2717585985344324
2019-06-04,1.2689481194454522
2019-06-05,1.272544907758105
2019-06-06,1.2637263058167363
2019-06-10,1.2732453986134893
2019-06-11,1.2824949061528905
2019-06-12,1.2798879940341772
2019-06-13,1.2688088017301073
2019-06-14,1.2619682319717012
2019-06-17,1.2620584686542382
2019-06-18,1.262197808210495
2019-06-19,1.2680838287719849
2019-06-20,1.30782588806818
2019-06-21,1.3071522740272872
2019-06-24,1.3138290716932677
2019-06-25,1.3047507773821678
2019-06-26,1.30893145233856
2019-06-27,1.3364306147235294
2019-06-28,1.3363432664046964
2019-07-01,1.3832736798921863
2019-07-02,1.3919858336095896
2019-07-03,1.3733495687350292
2019-07-04,1.3584695369127213
2019-07-05,1.3745518449283167
2019-07-08,1.333891541486495
2019-07-09,1.3361588613442272
2019-07-10,1.3364650385027663
2019-07-11,1.3309723997828546
2019-07-12,1.3355056897006403
2019-07-15,1.3413585806513895
2019-07-16,1.3286748505453108
2019-07-17,1.327981158560312
2019-07-18,1.3193806033465183
2019-07-19,1.3244325080154824
2019-07-22,1.3260404596258173
2019-07-23,1.3349900648310598
2019-07-24,1.3389068247091462
2019-07-25,1.3494995179654024
2019-07-26,1.3565050265216612
2019-07-29,1.3550336034487265
2019-07-30,1.35334990220774
2019-07-31,1.3478470584362792
2019-08-01,1.3415916739181577
2019-08-02,1.3339580424380981
2019-08-05,1.3140913738878253
2019-08-06,1.3089230220296053
2019-08-07,1.310331626112395
2019-08-08,1.313816253584636
2019-08-09,1.3073866813520838
2019-08-12,1.3107879107743217
2019-08-13,1.3121607682669878
2019-08-14,1.3122487684553763
2019-08-15,1.3149265070959817
2019-08-16,1.3161464584207456
2019-08-19,1.3249054600277752
2019-08-20,1.3271575817992332
2019-08-21,1.3206328908388696
2019-08-22,1.316664505328594
2019-08-23,1.3231340497050017
2019-08-26,1.31073818655162
2019-08-27,1.3270638405996662
2019-08-28,1.32697522988067
2019-08-29,1.321017227383515
2019-08-30,1.3269594925750618
2019-09-02,1.348955639181373
2019-09-03,1.3508573802608892
2019-09-04,1.3514731250853949
2019-09-05,1.3565946750740403
2019-09-06,1.3614362621666063
2019-09-09,1.3637705864375262
2019-09-10,1.356609089964714
2019-09-11,1.3437389889430151
2019-09-12,1.3483058127068215
2019-09-16,1.3439453713933578
2019-09-17,1.3259197054736278
2019-09-18,1.3244700380415968
2019-09-19,1.326244033756205
2019-09-20,1.3301951173227253
2019-09-23,1.3181799623715091
2019-09-24,1.3224054719983007
2019-09-25,1.3178136703717447
2019-09-26,1.3144165810645791
2019-09-27,1.317790111726556
2019-09-30,1.3130361985836083
2019-10-08,1.3156103449148857
2019-10-09,1.3160459314128576
2019-10-10,1.317889124794701
2019-10-11,1.3218847854480673
2019-10-14,1.3236328068249
2019-10-15,1.3286430606798612
2019-10-16,1.3266664858643464
2019-10-17,1.3293771303891284
2019-10-18,1.3218471616052923
2019-10-21,1.325706051158947
2019-10-22,1.329670580700928
2019-10-23,1.3269848549700343
2019-10-24,1.3256983013034886
2019-10-25,1.336070360223071
2019-10-28,1.3387390709943394
2019-10-29,1.342013599747566
2019-10-30,1.342901226193675
2019-10-31,1.342191396464626
2019-11-01,1.3539618075798272
2019-11-04,1.3624770555126633
2019-11-05,1.3736482884414791
2019-11-06,1.3728811914127923
2019-11-07,1.3759001088645095
2019-11-08,1.3800330510558716
2019-11-11,1.3608955880630025
2019-11-12,1.362297352029435
2019-11-13,1.3672637335197735
2019-11-14,1.3624065639427876
2019-11-15,1.3556190106424244
2019-11-18,1.3580061155191405
2019-11-19,1.3707464939705765
2019-11-20,1.36077863475208
2019-11-21,1.3593471243467823
2019-11-22,1.3516297789461393
2019-11-25,1.3595824741993263
2019-11-26,1.3645784908620542
2019-11-27,1.3593669830788297
2019-11-28,1.3585077589579853
2019-11-29,1.355169416721171
2019-12-02,1.3636859249986708
2019-12-03,1.369163009091638
2019-12-04,1.368106996507904
2019-12-05,1.3716763939361662
2019-12-06,1.3757995036860462
2019-12-09,1.3807363922888416
2019-12-10,1.3838796028259268
2019-12-11,1.3795963113787657
2019-12-12,1.3747944626497677
2019-12-13,1.3892879956058013
2019-12-16,1.3904381151768859
2019-12-17,1.4012382690375793
2019-12-18,1.3960912552048725
2019-12-19,1.396523511699548
2019-12-20,1.3947502173426352
2019-12-23,1.382484675235375
2019-12-24,1.40163182730427
2019-12-25,1.4068020803796875
2019-12-26,1.4115056574523328
2019-12-27,1.4100441999424276
2019-12-30,1.433370366917993
2019-12-31,1.4359433700053494
2020-01-02,1.4627573656514536
2020-01-03,1.4592404020687118
2020-01-06,1.45350649016998
2020-01-07,1.4609907135088427
2020-01-08,1.4500715079803357
2020-01-09,1.4653816558567727
2020-01-10,1.4623483388133285
2020-01-13,1.4776044880537123
2020-01-14,1.4729899347737345
2020-01-15,1.4660604866441544
2020-01-16,1.4620975858653666
2020-01-17,1.4704263875709653
2020-01-20,1.4780456310241779
2020-01-21,1.4494967487603456
2020-01-22,1.455767753379805
2020-01-23,1.4393671049441723
2020-02-03,1.4136959100205777
2020-02-04,1.431479193136746
2020-02-05,1.4524545457911222
2020-02-06,1.4621325921069273
2020-02-07,1.456775279221382
2020-02-10,1.4610301504618424
2020-02-11,1.4594575222008153
2020-02-12,1.4664106537776158
2020-02-13,1.4664039739834505
2020-02-14,1.4682894033192075
2020-02-17,1.4833748894241392
2020-02-18,1.4813384241854126
2020-02-19,1.4794292545943544
2020-02-20,1.5021317149207993
2020-02-21,1.5097028547422786
2020-02-24,1.5114373909664822
2020-02-25,1.5225561959285785
2020-02-26,1.4936664533371808
2020-02-27,1.498383345548015
2020-02-28,1.4636019676606489
2020-03-02,1.4861235627585623
2020-03-03,1.4905967855527065
2020-03-04,1.4861141916345817
2020-03-05,1.502605876807528
2020-03-06,1.4785293276600748
2020-03-09,1.4310108917591116
2020-03-10,1.4414665688954813
2020-03-11,1.4285739976534495
2020-03-12,1.4198937009825718
2020-03-13,1.415676109294811
2020-03-16,1.4059686888149168
2020-03-17,1.4059316896388954
2020-03-18,1.4051188897111406
2020-03-19,1.4068768210239042
2020-03-20,1.4064799104125667
2020-03-23,1.4041928605087453
2020-03-24,1.4041559080650476
2020-03-25,1.4049328793256435
2020-03-26,1.4089152424864366
2020-03-27,1.4066491669006491
2020-03-30,1.4066033128915072
2020-03-31,1.3935498444937975
2020-04-01,1.38067099205863
2020-04-02,1.3924945075999215
2020-04-03,1.3875516359445859
2020-04-07,1.3966608179708473
2020-04-08,1.3952652615653145
2020-04-09,1.3909991674373594
2020-04-10,1.3813307929246528
2020-04-13,1.380456324332893
2020-04-14,1.4050452412903807
2020-04-15,1.3931584201090899
2020-04-16,1.4012249796820548
2020-04-17,1.4125998995147824
2020-04-20,1.4147953219251286
2020-04-21,1.3991115464301358
2020-04-22,1.4100824598559982
2020-04-23,1.4105763448535953
2020-04-24,1.4020616185745343
2020-04-27,1.3963981910924537
2020-04-28,1.4200059320426281
2020-04-29,1.4263339525881185
2020-04-30,1.4372471477844426
2020-05-06,1.4388031077520564
2020-05-07,1.4358508999010724
2020-05-08,1.4467697934588963
2020-05-11,1.4465405509877198
2020-05-12,1.4543869145924224
2020-05-13,1.453974459231276
2020-05-14,1.4368852684689668
2020-05-15,1.4294500661304421
2020-05-18,1.4307492471983572
2020-05-19,1.4760291637227267
2020-05-20,1.464540204389098
2020-05-21,1.4493417599276528
2020-05-22,1.4166934337039634
2020-05-25,1.429414446165281
2020-05-26,1.4369778901643664
2020-05-27,1.4507959252099576
2020-05-28,1.4449920457041292
2020-05-29,1.4464427683026444
2020-06-01,1.465875489620187
2020-06-02,1.4606466516645893
2020-06-03,1.4639450804652452
2020-06-04,1.4473478119037544
2020-06-05,1.4604458961070423
2020-06-08,1.4801712784365395
2020-06-09,1.5079214786199187
2020-06-10,1.4995603032794473
2020-06-11,1.4766425712475328
2020-06-12,1.467714690994346
2020-06-15,1.4504793635660849
2020-06-16,1.4635198038247197
2020-06-17,1.461039097003395
2020-06-18,1.4678242844965004
2020-06-19,1.4869017688677286
2020-06-22,1.4955911110421845
2020-06-23,1.510526793751167
2020-06-24,1.5273015909699235
2020-06-29,1.528942045464618
2020-06-30,1.5478998205272483
2020-07-01,1.5771197814146518
2020-07-02,1.5973363154338658
2020-07-03,1.6209264650810093
2020-07-06,1.737810963617356
2020-07-07,1.7528278991197697
2020-07-08,1.7744763741432896
2020-07-09,1.8176530004607478
2020-07-10,1.7775036469016436
2020-07-13,1.8406138528598066
2020-07-14,1.8207251881139155
2020-07-15,1.823251846960992
2020-07-16,1.702211553671132
2020-07-17,1.7154992814443928
2020-07-20,1.7701234889853852
2020-07-21,1.787721539238887
2020-07-22,1.7930860045428396
2020-07-23,1.8180923346548385
2020-07-24,1.752209375818778
2020-07-27,1.7692823316650639
2020-07-28,1.76465953400268
2020-07-29,1.7925830558302465
2020-07-30,1.7989491283281704
2020-07-31,1.809788798139688
2020-08-03,1.8270788197977768
2020-08-04,1.82106002943382
2020-08-05,1.8336363525092052
2020-08-06,1.8251960133952057
2020-08-07,1.819435337593934
2020-08-10,1.810478329600825
2020-08-11,1.7937553698620816
2020-08-12,1.7782830811661676
2020-08-13,1.780096811300009
2020-08-14,1.7839609576626945
2020-08-17,1.7978209217630698
2020-08-18,1.7917805973575953
2020-08-19,1.775838549955988
2020-08-20,1.7568677507507249
2020-08-21,1.7586445331917777
2020-08-24,1.768851948535351
2020-08-25,1.770305915460635
2020-08-26,1.7560900966546726
2020-08-27,1.7532341771968012
2020-08-28,1.7700017817851668
2020-08-31,1.7674832058847876
2020-09-01,1.7776802072530966
2020-09-02,1.7756408518893512
2020-09-03,1.7759241105189765
2020-09-04,1.7657800512619113
2020-09-07,1.7457153046150768
2020-09-08,1.7580914506914977
2020-09-09,1.736764912963195
2020-09-10,1.744059572193756
2020-09-11,1.7482857099394806
2020-09-14,1.754649471609098
2020-09-15,1.7591280245015848
2020-09-16,1.7634402846542534
2020-09-17,1.7619101693353763
2020-09-18,1.7817774696100304
2020-09-21,1.7692144671141226
2020-09-22,1.7535185075209054
2020-09-23,1.751631992395769
2020-09-24,1.7289825876618667
2020-09-25,1.7234108951290714
2020-09-28,1.7287862145582342
2020-09-29,1.7294926813340021
2020-09-30,1.733444527191438
2020-10-09,1.7509597875435874
2020-10-12,1.7756716307890672
2020-10-13,1.7981688741069928
2020-10-14,1.7882880075258467
2020-10-15,1.7845631648484688
2020-10-16,1.7880398866944756
2020-10-19,1.7677126914335906
2020-10-20,1.7922394324606572
2020-10-21,1.7851666314114698
2020-10-22,1.7856769563935941
2020-10-23,1.7558136379170541
2020-10-26,1.7709294305805705
2020-10-27,1.770464137407233
2020-10-28,1.7843351448519669
2020-10-29,1.8003303368328247
2020-10-30,1.7890556090441965
2020-11-02,1.8152903696169422
2020-11-03,1.829070449157852
2020-11-04,1.8418841364393503
2020-11-05,1.855922483922736
2020-11-06,1.8645662425489664
2020-11-09,1.8786078356054028
2020-11-10,1.874291881966736
2020-11-11,1.8525987983009544
2020-11-12,1.8575390512976198
2020-11-13,1.8319351942026403
2020-11-16,1.849901763486517
2020-11-17,1.8337123029219289
2020-11-18,1.8286472949572352
2020-11-19,1.8337734045976881
2020-11-20,1.8366113723393143
2020-11-23,1.8514958749843031
2020-11-24,1.83603602344002
2020-11-25,1.8223727748747158
2020-11-26,1.8217268490717404
2020-11-27,1.8370176251913755
2020-11-30,1.8358195740987815
2020-12-01,1.8520209977660873
2020-12-02,1.8499883512434436
2020-12-03,1.8286912363511585
2020-12-04,1.8289387860039994
2020-12-07,1.809143597828622
2020-12-08,1.806142148449965
2020-12-09,1.79454542565395
2020-12-10,1.7968833973357705
2020-12-11,1.794765899967448
2020-12-14,1.8026165106586494
2020-12-15,1.8048686131675538
2020-12-16,1.8129701424018332
2020-12-17,1.8194967242530948
2020-12-18,1.8212071175619926
2020-12-21,1.8443024950091433
2020-12-22,1.8319195958435504
2020-12-23,1.8447602541430395
2020-12-24,1.842046289671571
2020-12-25,1.8572649396805274
2020-12-28,1.8652412299315684
2020-12-29,1.8416322128382578
2020-12-30,1.8736481143800814
2020-12-31,1.901588282785557
2021-01-04,1.9452606794762393
2021-01-05,1.98642273011825
2021-01-06,1.9996913173749025
2021-01-07,2.049093301690276
2021-01-08,2.035940407296527
2021-01-11,2.017299828984427
2021-01-12,2.0800388168873827
2021-01-13,2.0654695906056437
2021-01-14,2.0079317212136614
2021-01-15,2.009970306830602
2021-01-18,2.0243518288034386
2021-01-19,1.9864015976110385
2021-01-20,2.0020371490711755
2021-01-21,2.0295507978776404
2021-01-22,2.0329413092997015
2021-01-25,2.0477075102882085
2021-01-26,2.0029891993229416
2021-01-27,2.0151130468501814
2021-01-28,1.978065755127662
2021-01-29,1.9692928486913255
2021-02-01,1.9713129231086173
2021-02-02,1.9815303705033334
2021-02-03,1.9807327197243234
2021-02-04,1.979037437693707
2021-02-05,1.985366359417923
2021-02-08,1.9978263121522866
2021-02-09,2.0133467927203434
2021-02-10,2.0531866468094853
2021-02-18,2.0359685939563907
2021-02-19,2.020383130255886
2021-02-22,1.9914566008239296
2021-02-23,1.9847786635514348
2021-02-24,1.9473450889097172
2021-02-25,1.9693855104422133
2021-02-26,1.9351376370123428
2021-03-01,1.9408293830677772
2021-03-02,1.9316234605548555
2021-03-03,1.9517403097522559
2021-03-04,1.9401449354239435
2021-03-05,1.9374897750527087
2021-03-08,1.9351182925894264
2021-03-09,1.9327218095410408
2021-03-10,1.9249236095756888
2021-03-11,1.935835022359643
2021-03-12,1.9429578547572368
2021-03-15,1.950657125206463
2021-03-16,1.9498179310156116
2021-03-17,1.9398532061777576
2021-03-18,1.9384605116195015
2021-03-19,1.9267914664427446
2021-03-22,1.9315246438026918
2021-03-23,1.9236538398934637
2021-03-24,1.92309844839726
2021-03-25,1.924035363180041
2021-03-26,1.9234927296716378
2021-03-29,1.9272948367550977
2021-03-30,1.9310060013677277
2021-03-31,1.9263916425588405
2021-04-01,1.9303845436999736
2021-04-02,1.9394104749403958
2021-04-06,1.9264925159490522
2021-04-07,1.9203160620472404
2021-04-08,1.9249564340392007
2021-04-09,1.9082037666683946
2021-04-12,1.9012650247831755
2021-04-13,1.896343621712232
2021-04-14,1.900367331209451
2021-04-15,1.8992043237534035
2021-04-16,1.9019717696989271
2021-04-19,1.922540424993622
2021-04-20,1.926370514403913
2021-04-21,1.9326607692865714
2021-04-22,1.9341904824447507
2021-04-23,1.9472168769138039
2021-04-26,1.940983209157887
2021-04-27,1.9436909666442863
2021-04-28,1.963673984758342
2021-04-29,1.9805196592773506
2021-04-30,1.9845778959578395
2021-05-06,1.9675945929585708
2021-05-07,1.9502367587645397
2021-05-10,1.9614913895812238
2021-05-11,1.9615104769494733
2021-05-12,1.966215739116989
2021-05-13,1.956593223169628
2021-05-14,1.966979415614499
2021-05-17,1.9828868532015542
2021-05-18,1.981136009826581
2021-05-19,1.9764991018221185
2021-05-20,1.9656742175529618
2021-05-21,1.9582952952928712
2021-05-24,1.9645072824375494
2021-05-25,1.9855768625316847
2021-05-26,1.9926058197666239
2021-05-27,1.9887748640864509
2021-05-28,1.9904865837336094
2021-05-31,1.9930843311853619
2021-06-01,1.9934104160957247
2021-06-02,1.981264921657052
2021-06-03,1.970284612540929
2021-06-04,1.9798303069157288
2021-06-07,1.976172273092262
2021-06-08,1.9724981975011273
2021-06-09,1.9777843061469795
2021-06-10,1.9933311600654495
2021-06-11,1.9932013277842227
2021-06-15,1.9883141692012172
2021-06-16,1.9658720509804206
2021-06-17,1.9740292691325616
2021-06-18,1.9758927120783785
2021-06-21,1.9711906181584937
2021-06-22,1.9695233494505904
2021-06-23,1.9686756831463361
2021-06-24,1.9712628940589092
2021-06-25,1.974745051396956
2021-06-28,1.9799685335383062
2021-06-29,1.972931704396684
2021-06-30,1.978998674502684
2021-07-01,1.9741894368209891
2021-07-02,1.9474892903380814
2021-07-05,1.9542992770231
2021-07-06,1.9405411350112403
2021-07-07,1.9500049303314682
2021-07-08,1.9475373307085875
2021-07-09,1.9450623518577286
2021-07-12,1.9508293701508856
2021-07-13,1.9411327835415282
2021-07-14,1.92544859170447
2021-07-15,1.935800296311747
2021-07-16,1.9254419053883733
2021-07-19,1.9277676224460165
2021-07-20,1.9262813686323987
2021-07-21,1.940345616055512
2021-07-22,1.9336238593729274
2021-07-23,1.9283656299039988
2021-07-26,1.9062998865004208
2021-07-27,1.8893058658144317
2021-07-28,1.8822941728756286
2021-07-29,1.888785809045164
2021-07-30,1.892917442579399
2021-08-02,1.902846085784434
2021-08-03,1.9024531664795952
2021-08-04,1.9089995462714826
2021-08-05,1.907656878688413
2021-08-06,1.9025576810775875
2021-08-09,1.906920673138945
2021-08-10,1.907459592459921
2021-08-11,1.8968729942743812
2021-08-12,1.8984720420358558
2021-08-13,1.8979727272221345
2021-08-16,1.9015891674166858
2021-08-17,1.8844026700555925
2021-08-18,1.897944985851133
2021-08-19,1.8830770834018538
2021-08-20,1.8817276476548035
2021-08-23,1.8804802762360038
2021-08-24,1.8800644155913437
2021-08-25,1.8820561375894695
2021-08-26,1.8751285260257375
2021-08-27,1.8828854551121192
2021-08-30,1.895699080701962
2021-08-31,1.9159926506907041
2021-09-01,1.9158309130321696
2021-09-02,1.9251207223247162
2021-09-03,1.9191599235901489
2021-09-06,1.9252266933595383
2021-09-07,1.9325239327222201
2021-09-08,1.9259567068803045
2021-09-09,1.940300606850673
2021-09-10,1.9457387331403522
2021-09-13,1.9399130339121484
2021-09-14,1.906233240725768
2021-09-15,1.8884050337436937
2021-09-16,1.8752395627341971
2021-09-17,1.8805944243442843
2021-09-22,1.9007054099917868
2021-09-23,1.895525682207102
2021-09-24,1.8924938126217967
2021-09-27,1.8927025144355356
2021-09-28,1.8999571708541434
2021-09-29,1.8909281317406397
2021-09-30,1.8982599146032302
2021-10-08,1.9106816534278483
2021-10-11,1.9084657202566495
2021-10-12,1.902368623721601
2021-10-13,1.8967847147311918
2021-10-14,1.8884898759874607
2021-10-15,1.8895556820832147
2021-10-18,1.8692800497739521
2021-10-19,1.8767319494117949
2021-10-20,1.863507988345659
2021-10-21,1.8622056628747161
2021-10-22,1.8717989928983043
2021-10-25,1.8722681457911328
2021-10-26,1.8646945373670203
2021-10-27,1.8469005321479441
2021-10-28,1.8425160792866737
2021-10-29,1.856296797641015
2021-11-01,1.8543292222056726
2021-11-02,1.8442297410573811
2021-11-03,1.8344870069923216
2021-11-04,1.841264661557289
2021-11-05,1.8412026287294003
2021-11-08,1.835325226864404
2021-11-09,1.8309052860442896
2021-11-10,1.823172348430314
2021-11-11,1.8258131039162575
2021-11-12,1.822457352010071
2021-11-15,1.8200261741829304
2021-11-16,1.8190516449649758
2021-11-17,1.8150904498963938
2021-11-18,1.8082899512000392
2021-11-19,1.8197159087492059
2021-11-22,1.8159162963038487
2021-11-23,1.8167596812638702
2021-11-24,1.8167978448670368
2021-11-25,1.8123738116178811
2021-11-26,1.8019477171716287
2021-11-29,1.8018436297498712
2021-11-30,1.800051099357181
2021-12-01,1.803478694957463
2021-12-02,1.8104895829272243
2021-12-03,1.8244548021542684
2021-12-06,1.8221158519755936
2021-12-07,1.824407438991313
2021-12-08,1.8337004056179627
2021-12-09,1.8503336494457594
2021-12-10,1.8398771840150288
2021-12-13,1.851854188023739
2021-12-14,1.8321469414086233
2021-12-15,1.821240595717765
2021-12-16,1.8411380737925327
2021-12-17,1.8185812314449377
2021-12-20,1.809092539610476
2021-12-21,1.8201946874395007
2021-12-22,1.8196572519954688
2021-12-23,1.8294599938827303
2021-12-24,1.830119895310164
2021-12-27,1.829847994497471
2021-12-28,1.8318860116359597
2021-12-29,1.813982610993888
2021-12-30,1.8161422841078156
2021-12-31,1.817648713370593
2022-01-04,1.8126555774772986
2022-01-05,1.8053723471838208
2022-01-06,1.7966236398520488
2022-01-07,1.816395182762945
2022-01-10,1.8192881976284954
2022-01-11,1.812606769257734
2022-01-12,1.8030350807610203
2022-01-13,1.793331336300227
2022-01-14,1.7727850511795218
2022-01-17,1.7715156424126943
2022-01-18,1.77511664593482
2022-01-19,1.7750060142351352
2022-01-20,1.7848357643536537
2022-01-21,1.7748297385524845
2022-01-24,1.7651119179185781
2022-01-25,1.7525463567997384
2022-01-26,1.7527309280740073
2022-01-27,1.7465306000035565
2022-01-28,1.737636948978514
2022-02-07,1.7423428405714692
2022-02-08,1.7461359869833948
2022-02-09,1.746290186975891
2022-02-10,1.764582893504805
2022-02-11,1.7704936128924988
2022-02-14,1.7586737364428833
2022-02-15,1.7484920303495686
2022-02-16,1.750752783472244
2022-02-17,1.7527638171243056
2022-02-18,1.7613247967374914
2022-02-21,1.7587749417767715
2022-02-22,1.753097435993151
2022-02-23,1.7475237992802406
2022-02-24,1.7379453838604544
2022-02-25,1.7347489071512343
2022-02-28,1.7385747472122342
2022-03-01,1.7393554528491522
2022-03-02,1.741400866047248
2022-03-03,1.7401010416312517
2022-03-04,1.7370504255221162
2022-03-07,1.7291847072524136
2022-03-08,1.717902286159687
2022-03-09,1.7180084507837203
2022-03-10,1.7187233536010065
2022-03-11,1.7202839854805296
2022-03-14,1.7154764848783288
2022-03-15,1.701091465227371
2022-03-16,1.708484374985967
2022-03-17,1.7128541762795126
2022-03-18,1.7142358150354997
2022-03-21,1.720358232363087
2022-03-22,1.720248827453065
2022-03-23,1.7155649438420018
2022-03-24,1.7161550046240872
2022-03-25,1.7121020080230676
2022-03-28,1.712192179142485
2022-03-29,1.7191564051551755
2022-03-30,1.7227147113327261
2022-03-31,1.7211619024901246
2022-04-01,1.7278124887694344
2022-04-06,1.7307754499869998
2022-04-07,1.7127035967186988
2022-04-08,1.718491322906448
2022-04-11,1.6981144639623766
2022-04-12,1.7038541538515657
2022-04-13,1.706776936068122
2022-04-14,1.7201653858105266
2022-04-15,1.7211447532944482
2022-04-18,1.6998176930692963
2022-04-19,1.6919930494254698
2022-04-20,1.673749812500746
2022-04-21,1.6647263979370988
2022-04-22,1.6709736582349317
2022-04-25,1.647511885030872
2022-04-26,1.6496979428948857
2022-04-27,1.6500187706645775
2022-04-28,1.6523566354027026
2022-04-29,1.6629756191652276
2022-05-05,1.6530588745842107
2022-05-06,1.6363660393568777
2022-05-09,1.630125436853004
2022-05-10,1.6347055519649585
2022-05-11,1.6343815780932436
2022-05-12,1.6356530678868983
2022-05-13,1.640769332580167
2022-05-16,1.6355606361766568
2022-05-17,1.6423896580662312
2022-05-18,1.64142640165257
2022-05-19,1.6434426054784737
2022-05-20,1.651044357506219
2022-05-23,1.645575772740752
2022-05-24,1.6338321252333086
2022-05-25,1.6375368637934018
2022-05-26,1.6366199319951014
2022-05-27,1.6361057226865445
2022-05-30,1.6369068847677428
2022-05-31,1.6447468970850123
2022-06-01,1.6390668062261016
2022-06-02,1.645709823958137
2022-06-06,1.6685962825502194
2022-06-07,1.6669856263972145
2022-06-08,1.6853772715026885
2022-06-09,1.6644388064539897
2022-06-10,1.6847991670801803
2022-06-13,1.6636308473119203
2022-06-14,1.6773362012010138
2022-06-15,1.6903482296979615
2022-06-16,1.6783716025623439
2022-06-17,1.6932770293832031
2022-06-20,1.7025370265456974
2022-06-21,1.7063959522816112
2022-06-22,1.684969838989695
2022-06-23,1.7050565779850042
2022-06-24,1.7295745047006652
2022-06-27,1.7467121524957918
2022-06-28,1.7595580553550905
2022-06-29,1.7335838702513053
2022-06-30,1.7627090352054355
2022-07-01,1.757145293823151
2022-07-04,1.77949873032001
2022-07-05,1.7764784570218142
2022-07-06,1.7392031434802078
2022-07-07,1.7407445430343085
2022-07-08,1.7412517970269787
2022-07-11,1.7281936601314707
2022-07-12,1.7269272187362503
2022-07-13,1.7218915956746736
2022-07-14,1.718128256981081
2022-07-15,1.7047578384409863
2022-07-18,1.7098795005145635
2022-07-19,1.7044527640991092
2022-07-20,1.7034958855177178
2022-07-21,1.703128610077871
2022-07-22,1.7033206620541046
2022-07-25,1.7041824383166657
2022-07-26,1.7009986289643
2022-07-27,1.6988035416050267
2022-07-28,1.6980068941697
2022-07-29,1.6981832235671692
2022-08-01,1.701039278037309
2022-08-02,1.6999239235606527
2022-08-03,1.6987242727278615
2022-08-04,1.7010187247237782
2022-08-05,1.7016862355051037
2022-08-08,1.7019819803630218
2022-08-09,1.7019507226523785
2022-08-10,1.699064905248493
2022-08-11,1.7057945060528596
2022-08-12,1.705793836852948
2022-08-15,1.6989896106469153
2022-08-16,1.6978673363279913
2022-08-17,1.7036948706498878
2022-08-18,1.697160259077007
2022-08-19,1.6928330122542774
2022-08-22,1.6983690029017544
2022-08-23,1.6957855000813666
2022-08-24,1.6888660878724997
2022-08-25,1.6945025347974403
2022-08-26,1.6929604983868254
2022-08-29,1.6916648946610364
2022-08-30,1.6897792157130969
2022-08-31,1.6920502459779407
2022-09-01,1.6863339431692381
2022-09-02,1.6802971066391161
2022-09-05,1.68639045937884
2022-09-06,1.689687583819633
2022-09-07,1.6842858272176158
2022-09-08,1.6872926771888657
2022-09-09,1.7007355213817776
2022-09-13,1.7052789888270725
2022-09-14,1.6974964379630642
2022-09-15,1.702669738253589
2022-09-16,1.6799493868887545
2022-09-19,1.6833172736480644
2022-09-20,1.6794246695986244
2022-09-21,1.6780974963588497
2022-09-22,1.6765484822405048
2022-09-23,1.6776698319860086
2022-09-26,1.6758545001230016
2022-09-27,1.680632408900263
2022-09-28,1.6775322729640307
2022-09-29,1.6745201359663617
2022-09-30,1.6731307162139046
2022-10-10,1.6650437626073868
2022-10-11,1.6645533836830975
2022-10-12,1.6641815823492998
2022-10-13,1.6619583480187454
2022-10-14,1.6697566579794296
2022-10-17,1.6703077876208121
2022-10-18,1.6694469057440726
2022-10-19,1.6668345516363121
2022-10-20,1.667216645720643
2022-10-21,1.6678392414492977
2022-10-24,1.6603867294861918
2022-10-25,1.6587376834083316
2022-10-26,1.6648526744953718
2022-10-27,1.6652686003996804
2022-10-28,1.6588732970245579
2022-10-31,1.6575854957321123
2022-11-01,1.6634652454602983
2022-11-02,1.6674237278668966
2022-11-03,1.6626798944383396
2022-11-04,1.6766452537678618
2022-11-07,1.6825545980822811
2022-11-08,1.6783126748656796
2022-11-09,1.6774842255425113
2022-11-10,1.6708409045547432
2022-11-11,1.6857689025654925
2022-11-14,1.6907680678728267
2022-11-15,1.7162934585249743
2022-11-16,1.7063970141170588
2022-11-17,1.6960377896963876
2022-11-18,1.7011617189260924
2022-11-21,1.6840441954586205
2022-11-22,1.683588441342748
2022-11-23,1.6763948508883224
2022-11-24,1.6748809739426944
2022-11-25,1.6843305260223425
2022-11-28,1.6667402066881076
2022-11-29,1.6998311066700469
2022-11-30,1.6952079921085428
2022-12-01,1.711135657781939
2022-12-02,1.6937674769594429
2022-12-05,1.7303033064132636
2022-12-06,1.7391768979715503
2022-12-07,1.728496069960868
2022-12-08,1.7283754094891874
2022-12-09,1.7578669971936698
2022-12-12,1.7338001702306014
2022-12-13,1.734874512021514
2022-12-14,1.7433310351867994
2022-12-15,1.730749737738157
2022-12-16,1.7442860955578339
2022-12-19,1.717722022301511
2022-12-20,1.6948547624415315
2022-12-21,1.69981597290392
2022-12-22,1.7016002976877367
2022-12-23,1.7028724624945448
2022-12-26,1.6974434815650123
2022-12-27,1.7050220338516109
2022-12-28,1.7007338962039724
2022-12-29,1.6978327290639068
2022-12-30,1.6999019670086954
2023-01-03,1.696234971695222
2023-01-04,1.6951666124704896
2023-01-05,1.6998362949999448
2023-01-06,1.6976038257697177
2023-01-09,1.7170840102380958
2023-01-10,1.7165505344367469
2023-01-11,1.7161602600353631
2023-01-12,1.7115784831699183
2023-01-13,1.7289832774209906
2023-01-16,1.756914242155998
2023-01-17,1.7516106952669588
2023-01-18,1.7439787686341583
2023-01-19,1.7581717020841
2023-01-20,1.7661074830131371
2023-01-30,1.7635985731991426
2023-01-31,1.7478397026100345
2023-02-01,1.7654784921365914
2023-02-02,1.756572493998491
2023-02-03,1.7383190897001914
2023-02-06,1.7196000017104962
2023-02-07,1.7216288512923592
2023-02-08,1.7174084247509187
2023-02-09,1.7241188271491938
2023-02-10,1.718766754709809
2023-02-13,1.7240247101946609
2023-02-14,1.7240521227152057
2023-02-15,1.7233744599919143
2023-02-16,1.7197147639027945
2023-02-17,1.7162819163090555
2023-02-20,1.729783828717958
2023-02-21,1.7318184984354512
2023-02-22,1.727667904195099
2023-02-23,1.7294822199335154
2023-02-24,1.7202653425261478
2023-02-27,1.7155357635042814
2023-02-28,1.7209861708752243
2023-03-01,1.7321569553553877
2023-03-02,1.7337839188996798
2023-03-03,1.7400145991008207
2023-03-06,1.7366384015922276
2023-03-07,1.7300378412372237
2023-03-08,1.7289084737181797
2023-03-09,1.7261269632391525
2023-03-10,1.7192008393341405
2023-03-13,1.7312010180464477
2023-03-14,1.728337944569114
2023-03-15,1.7327991422955493
2023-03-16,1.72836475515801
2023-03-17,1.7332311341135886
2023-03-20,1.7322088282098733
2023-03-21,1.730558811867794
2023-03-22,1.7343639176380077
2023-03-23,1.73818903362286
2023-03-24,1.7320241522273823
2023-03-27,1.7236385906408827
2023-03-28,1.72507664426046
2023-03-29,1.7254424690391303
2023-03-30,1.7274518719018574
2023-03-31,1.7240125830119826
2023-04-03,1.7210042846386167
2023-04-04,1.7269401768080004
2023-04-06,1.7284173954451236
2023-04-07,1.7349479691794856
2023-04-10,1.737742225934246
2023-04-11,1.7425838682576784
2023-04-12,1.7486278574649148
2023-04-13,1.7374521001644458
2023-04-14,1.7432675658518069
2023-04-17,1.7562581249229157
2023-04-18,1.7610453782335969
2023-04-19,1.750668906922833
2023-04-20,1.7479653587994715
2023-04-21,1.7243031255234673
2023-04-24,1.7223888439485058
2023-04-25,1.7237913442031296
2023-04-26,1.7194062562757804
2023-04-27,1.7214178196014824
2023-04-28,1.7226684811242259
2023-05-04,1.7223038782941709
2023-05-05,1.7145938203501523
2023-05-08,1.7264635587820247
2023-05-09,1.718989564424314
2023-05-10,1.7160741455953037
2023-05-11,1.718404990531942
2023-05-12,1.7135030265399385
2023-05-15,1.7180644678804031
2023-05-16,1.718135623973935
2023-05-17,1.714719376030473
2023-05-18,1.713515091128424
2023-05-19,1.7111833668536158
2023-05-22,1.7157859528266608
2023-05-23,1.7092913998730688
2023-05-24,1.7037620409437233
2023-05-25,1.7011616384378498
2023-05-26,1.700149879359806
2023-05-29,1.7013422748738514
2023-05-30,1.7002704639403312
2023-05-31,1.6988123950351062
2023-06-01,1.6984716768905943
2023-06-02,1.6963219841928587
2023-06-05,1.6946829648990385
2023-06-06,1.69148094398459
2023-06-07,1.692543142332577
2023-06-08,1.6938757385084633
2023-06-09,1.6929775604070258
2023-06-12,1.691807888545656
2023-06-13,1.6924108690036872
2023-06-14,1.6929137106681769
2023-06-15,1.699072929375538
2023-06-16,1.7044144856938417
2023-06-19,1.6921288410989876
2023-06-20,1.6883239865787985
2023-06-21,1.6789243859812306
2023-06-26,1.6702018589356216
2023-06-27,1.6757408605921116
2023-06-28,1.674683690988854
2023-06-29,1.671175602138153
2023-06-30,1.6751560855335383
2023-07-03,1.6807779979023576
2023-07-04,1.6820417517018889
2023-07-05,1.6762056776309677
2023-07-06,1.6709774778081457
2023-07-07,1.6684842278562282
2023-07-10,1.6681767939546432
2023-07-11,1.6722810134877069
2023-07-12,1.6713501222950984
2023-07-13,1.675829995365053
2023-07-14,1.6716599487422066
2023-07-17,1.6613083318931243
2023-07-18,1.6601457259752743
2023-07-19,1.6587843768526453
2023-07-20,1.653261561629333
2023-07-21,1.6513762265726073
2023-07-24,1.647805158351678
2023-07-25,1.662705980306553
2023-07-26,1.6613452402016469
2023-07-27,1.659888089968939
2023-07-28,1.69804676195037
2023-07-31,1.710391021595984
2023-08-01,1.6982219480260918
2023-08-02,1.690378130173071
2023-08-03,1.6983843673790198
2023-08-04,1.699297452122254
2023-08-07,1.6845117380736028
2023-08-08,1.6782695020907126
2023-08-09,1.6753490641385913
2023-08-10,1.6738934558947793
2023-08-11,1.6458279302438479
2023-08-14,1.6376091142382954
2023-08-15,1.6399029950916981
2023-08-16,1.6390456420180854
2023-08-17,1.6394100679059604
2023-08-18,1.6385998587958834
2023-08-21,1.6332099324984208
2023-08-22,1.6335473666359948
2023-08-23,1.6334355250071495
2023-08-24,1.632989673827544
2023-08-25,1.6329467004150748
2023-08-28,1.6328150254984533
2023-08-29,1.6320929099343022
2023-08-30,1.6319360782796186
2023-08-31,1.6297895854451752
2023-09-01,1.6312116721159042
2023-09-04,1.6401537550882666
2023-09-05,1.6349503565178676
2023-09-06,1.6323643427876962
2023-09-07,1.6270257185511048
2023-09-08,1.6224277094367412
2023-09-11,1.6247808807478115
2023-09-12,1.6252539647293989
2023-09-13,1.6217709446481827
2023-09-14,1.6205422330228254
2023-09-15,1.6202233533122476
2023-09-18,1.626071873150948
2023-09-19,1.6255987592524483
2023-09-20,1.621109826956092
2023-09-21,1.611209712389354
2023-09-22,1.6141681722807129
2023-09-25,1.6126611770380954
2023-09-26,1.6096007192312631
2023-09-27,1.6075467995724932
2023-09-28,1.6059925731353093
2023-10-09,1.6067763596532154
2023-10-10,1.604677510542099
2023-10-11,1.6082017608327126
2023-10-12,1.610279403072385
2023-10-13,1.6102046264380534
2023-10-16,1.6066935562901816
2023-10-17,1.6109716043581426
2023-10-18,1.6115335829885604
2023-10-19,1.6021242434190541
2023-10-20,1.600115435216538
2023-10-23,1.6027850527084564
2023-10-24,1.6014707998243827
2023-10-25,1.6026141033994272
2023-10-26,1.6023847234760333
2023-10-27,1.6030676947541433
2023-10-30,1.6089272925673908
2023-10-31,1.6059865046382866
2023-11-01,1.6065616250806352
2023-11-02,1.60331822495623
2023-11-03,1.6065760176268544
2023-11-06,1.6105306297590194
2023-11-07,1.607515781396401
2023-11-08,1.6046148268415692
2023-11-09,1.6013630620774024
2023-11-10,1.5989998589246566
2023-11-13,1.595348731585331
2023-11-14,1.5952246901828229
2023-11-15,1.5980360453361393
2023-11-16,1.5907431777590808
2023-11-17,1.5896881611954536
2023-11-20,1.5890131413987836
2023-11-21,1.5911853526917543
2023-11-22,1.5876674608868433
2023-11-23,1.5876585115832627
2023-11-24,1.5884852642959342
2023-11-27,1.588112215851382
2023-11-28,1.5877157442203584
2023-11-29,1.5880879315065222
2023-11-30,1.5895163140832402
2023-12-01,1.5885911391147598
2023-12-04,1.5905623412535679
2023-12-05,1.5853245004155745
2023-12-06,1.585330608920039
2023-12-07,1.5847645493307763
2023-12-08,1.5838694333534729
2023-12-11,1.5848549150223075
2023-12-12,1.584440392236509
2023-12-13,1.5834063718825397
2023-12-14,1.582883664289793
2023-12-15,1.582021127831487
2023-12-18,1.5826127833642498
2023-12-19,1.5819795716190967
2023-12-20,1.5773568581019528
2023-12-21,1.5768885309202854
2023-12-22,1.5770937319850087
2023-12-25,1.5784631349247533
2023-12-26,1.577456376910032
2023-12-27,1.5798334117179593
2023-12-28,1.5788843566429973
2023-12-29,1.5912315493401155
2024-01-02,1.5764733902826897
2024-01-03,1.5736739216123852
2024-01-04,1.5706701841124502
2024-01-05,1.569243156432678
2024-01-08,1.5605092300597747
2024-01-09,1.5656970468656695
2024-01-10,1.5643379642992348
2024-01-11,1.5638203245424804
2024-01-12,1.564762271420753
2024-01-15,1.5667598046534494
2024-01-16,1.5719853036075098
2024-01-17,1.5620016826970504
2024-01-18,1.5697269159454088
2024-01-19,1.5657019646786363
2024-01-22,1.5602686164017119
2024-01-23,1.5619504863597276
2024-01-24,1.5691190832588031
2024-01-25,1.5810956385972852
2024-01-26,1.5852501311292446
2024-01-29,1.5840191733940177
2024-01-30,1.5748252541859842
2024-01-31,1.5737968108074896
2024-02-01,1.568584672443839
2024-02-02,1.5699469287946117
2024-02-05,1.5831721771991434
2024-02-06,1.5962035668304715
2024-02-07,1.609933595307497
2024-02-08,1.612356181659151
2024-02-19,1.619999505825645
2024-02-20,1.6258820036949106
2024-02-21,1.6439552163041873
2024-02-22,1.650238756526659
2024-02-23,1.6465413414979235
2024-02-26,1.6296900924306672
2024-02-27,1.6425573106218534
2024-02-28,1.6248413022081178
2024-02-29,1.6519558054334402
2024-03-01,1.6602390373180542
2024-03-04,1.6617709148772288
2024-03-05,1.6768640533395969
2024-03-06,1.6700926566913337
2024-03-07,1.6638511015514583
2024-03-08,1.663042833453318
2024-03-11,1.675663226493632
2024-03-12,1.680086080582028
2024-03-13,1.673369048694728
2024-03-14,1.6790163215599607
2024-03-15,1.6795919923008353
2024-03-18,1.684691726164214
2024-03-19,1.6754752214522826
2024-03-20,1.6761495116321068
2024-03-21,1.6763353219269284
2024-03-22,1.6723260899725676
2024-03-25,1.6709298625571587
2024-03-26,1.674820317108426
2024-03-27,1.669364388105595
2024-03-28,1.670024985032443
2024-03-29,1.6717882145794734
2024-04-01,1.6814262963735602
2024-04-02,1.6785732033550373
2024-04-03,1.6781037654849156
2024-04-08,1.6710058770931644
2024-04-09,1.6676298221518773
2024-04-10,1.6717153123261559
2024-04-11,1.6752179398093034
2024-04-12,1.6697099894094263
2024-04-15,1.6839419828109763
2024-04-16,1.6848361651354398
2024-04-17,1.6897408475805684
2024-04-18,1.6914796473040945
2024-04-19,1.691167819280281
2024-04-22,1.6755821563842876
2024-04-23,1.6672817997180789
2024-04-24,1.6653246041908647
2024-04-25,1.6739601406909224
2024-04-26,1.6742339067686043
2024-04-29,1.6797593808731217
2024-04-30,1.6798837350394902
2024-05-06,1.7066324047513652
2024-05-07,1.707931096820842
2024-05-08,1.6937990897497306
2024-05-09,1.7071388569338217
2024-05-10,1.713578115743403
2024-05-13,1.7146550385370543
2024-05-14,1.714590509066675
2024-05-15,1.7070050170772622
2024-05-16,1.7190001753815602
2024-05-17,1.7294886191475651
2024-05-20,1.730687505494355
2024-05-21,1.7239085341060472
2024-05-22,1.7218615375286161
2024-05-23,1.7102113007440807
2024-05-24,1.6920324690741544
2024-05-27,1.6949143786186371
2024-05-28,1.6898363216841685
2024-05-29,1.690899566114214
2024-05-30,1.6872438204851288
2024-05-31,1.6805153943270568
2024-06-03,1.684363283442114
2024-06-04,1.6841727479940392
2024-06-05,1.6844570189203354
2024-06-06,1.6856255981302195
2024-06-07,1.6846132590642289
2024-06-11,1.683949885898526
2024-06-12,1.6842154748309746
2024-06-13,1.6863757899762164
2024-06-14,1.685349858708805
2024-06-17,1.6876734134400624
2024-06-18,1.6881484723614508
2024-06-19,1.6878199570467565
2024-06-20,1.689024423186731
2024-06-21,1.6885062585676989
2024-06-24,1.6883514560952368
2024-06-25,1.6875085555632015
2024-06-26,1.6886848714651246
2024-06-27,1.688267719360028
2024-06-28,1.6907503013414715
2024-07-01,1.6919159980404874
2024-07-02,1.693845570636402
2024-07-03,1.691301505664937
2024-07-04,1.6924275603391365
2024-07-05,1.6880041327149011
2024-07-08,1.6924002373940008
2024-07-09,1.6999019286258974
2024-07-10,1.697578326156338
2024-07-11,1.7000696088846095
2024-07-12,1.702869486997798
2024-07-15,1.7041821372390908
2024-07-16,1.7101565508866219
2024-07-17,1.7094821450054847
2024-07-18,1.7099715793700743
2024-07-19,1.7132993992648302
2024-07-22,1.705631688659166
2024-07-23,1.6783036927611017
2024-07-24,1.6762271792413874
2024-07-25,1.6768630004194132
2024-07-26,1.6743432219933279
2024-07-29,1.6723490612211376
2024-07-30,1.6672568305058384
2024-07-31,1.6730585414822985
2024-08-01,1.6705937686399903
2024-08-02,1.6687356677134222
2024-08-05,1.6650264467373102
2024-08-06,1.6657330248194078
2024-08-07,1.6636952905880094
2024-08-08,1.6635708900403408
2024-08-09,1.6600133699968183
2024-08-12,1.6614299612166934
2024-08-13,1.659909498072539
2024-08-14,1.660238036558048
2024-08-15,1.6639809164169475
2024-08-16,1.6640762086695378
2024-08-19,1.6633629304294568
2024-08-20,1.6607374477157875
2024-08-21,1.66021792690808
2024-08-22,1.6615446011129245
2024-08-23,1.6664197972274315
2024-08-26,1.6669528762674648
2024-08-27,1.6689280454075115
2024-08-28,1.6651207570437125
2024-08-29,1.6588221272169132
2024-08-30,1.6666628927570322
2024-09-02,1.6575410113952216
2024-09-03,1.6614660497104772
2024-09-04,1.659690679242401
2024-09-05,1.6601274006628912
2024-09-06,1.654271649011612
2024-09-09,1.6479488499213204
2024-09-10,1.6464000501028915
2024-09-11,1.6518768551899459
2024-09-12,1.6512255362593604
2024-09-13,1.6485949940165983
2024-09-18,1.6534976152026049
2024-09-19,1.6560291976683352
2024-09-20,1.6540448393487677
2024-09-23,1.6553932581187618
2024-09-24,1.6742066158703788
2024-09-25,1.6923729777545586
2024-09-26,1.753096527747858
2024-09-27,1.8348341415443898
2024-09-30,1.9855650894409487
2024-10-08,2.090800444449607
2024-10-09,1.929802433394171
2024-10-10,1.9656657834763014
2024-10-11,1.913094367832533
2024-10-14,1.949114297668666
2024-10-15,1.8982750611528192
2024-10-16,1.8758975026581424
2024-10-17,1.839740250571389
2024-10-18,1.8976997184523687
2024-10-21,1.9078663971116248
2024-10-22,1.9278248202358905
2024-10-23,1.9407259451595211
2024-10-24,1.9146853601139642
2024-10-25,1.934554995013194
2024-10-28,1.9466343353820843
2024-10-29,1.930949810361409
2024-10-30,1.930433178747126
2024-10-31,1.9341203008439791
2024-11-01,1.9309311802977966
2024-11-04,1.9417034075290138
2024-11-05,1.9568584403672584
2024-11-06,1.9501013391318445
2024-11-07,1.9782775259114587
2024-11-08,1.9622726797668095
2024-11-11,1.9653357575516621
2024-11-12,1.9566651661236816
2024-11-13,1.955627210154809
2024-11-14,1.9340927341253074
2024-11-15,1.9117508662611182
2024-11-18,1.9024227065137937
2024-11-19,1.904958867534639
2024-11-20,1.9043491787852145
2024-11-21,1.904995935321229
2024-11-22,1.8915154727754615
2024-11-25,1.8904417659111719
2024-11-26,1.8904417659111719
2024-11-27,1.8904417659111719
2024-11-28,1.8904417659111719
2024-11-29,1.890392017443648
2024-12-02,1.8901543768671818
2024-12-03,1.8892391653249634
2024-12-04,1.8903089030844433
2024-12-05,1.8887074145859002
2024-12-06,1.8895142792056665
2024-12-09,1.890664670781377
2024-12-10,1.8919576769804913
2024-12-11,1.891860296795472
2024-12-12,1.8958675805969558
2024-12-13,1.871911349725851
2024-12-16,1.873792169380044
2024-12-17,1.8745708323530874
2024-12-18,1.87669143430055
2024-12-19,1.874638479348262
2024-12-20,1.8698161012567092
2024-12-23,1.87358204011628
2024-12-24,1.8817267217168134
2024-12-25,1.882105118183887
2024-12-26,1.8828343689123923
2024-12-27,1.8823664396449247
2024-12-30,1.8848077239052268
2024-12-31,1.8800433550113866
2025-01-02,1.8635097066932986
2025-01-03,1.8604870678072414
2025-01-06,1.8623223114494187
2025-01-07,1.8623204956190063
2025-01-08,1.8653627181788688
2025-01-09,1.8663184770006669
2025-01-10,1.8639331465377287
2025-01-13,1.861359316454143
2025-01-14,1.862748911693744
2025-01-15,1.8608889181008004
2025-01-16,1.8635140222376148
2025-01-17,1.863416462314837
2025-01-20,1.8623366022849062
2025-01-21,1.8621026942720489
2025-01-22,1.8565482060617482
2025-01-23,1.8562503667285442
2025-01-24,1.8584365228407844
2025-01-27,1.8573803414962258
2025-02-05,1.8548799280525865
2025-02-06,1.8645747652582
2025-02-07,1.8731952702600485
2025-02-10,1.8784820970402276
2025-02-11,1.877028215531068
2025-02-12,1.886651475828191
2025-02-13,1.8928882219542644
2025-02-14,1.9049368597721559
2025-02-17,1.8969882662542552
2025-02-18,1.8886934840311207
2025-02-19,1.9003244637156682
2025-02-20,1.8998661051927492
2025-02-21,1.9118768582284291
2025-02-24,1.907423006495138
2025-02-25,1.8949923440104322
2025-02-26,1.903353529085644
2025-02-27,1.9086566015970814
2025-02-28,1.8852859325956328
2025-03-03,1.8864476511328174
2025-03-04,1.8816653336392055
2025-03-05,1.8840981516709248
2025-03-06,1.8891919113742028
2025-03-07,1.8901471717650933
2025-03-10,1.8880308174374625
2025-03-11,1.8913945239865209
2025-03-12,1.8844604637402964
2025-03-13,1.8848680072219617
2025-03-14,1.9012005030527113
2025-03-17,1.9036595344483667
2025-03-18,1.9041702805121625
2025-03-19,1.9094384915503002
2025-03-20,1.8931140885550486
2025-03-21,1.8766225854922791
2025-03-24,1.883033516014931
2025-03-25,1.880752376724411
2025-03-26,1.8784921156995091
2025-03-27,1.8824765157033239
2025-03-28,1.8803675555518815
2025-03-31,1.8766767301252314
2025-04-01,1.8750132922291531
2025-04-02,1.8722029999016976
2025-04-03,1.8709573186265096
2025-04-07,1.8533163778988402
2025-04-08,1.860074124215972
2025-04-09,1.8609853461068029
2025-04-10,1.8639780445882457
2025-04-11,1.8574208308042952
2025-04-14,1.8583095517423494
2025-04-15,1.8550728294700902
2025-04-16,1.8614792987428899
2025-04-17,1.8605007328786525
2025-04-18,1.8581306624746925
2025-04-21,1.852362553240021
2025-04-22,1.8534411631930319
2025-04-23,1.8488666827150801
2025-04-24,1.8498259559328476
2025-04-25,1.8473934483850158
2025-04-28,1.8426983270150283
2025-04-29,1.8401600958817133
2025-04-30,1.8379042810045745
2025-05-06,1.8427442572303536
2025-05-07,1.8439268299575962
2025-05-08,1.8451312686922057
2025-05-09,1.8467488414954358
2025-05-12,1.8593059358002457
2025-05-13,1.862213201017838
2025-05-14,1.873689308773459
2025-05-15,1.8612094069971963
2025-05-16,1.8517843391247117
2025-05-19,1.8469409908371757
2025-05-20,1.8569297145855166
2025-05-21,1.8647451898079255
2025-05-22,1.8656480526774921
2025-05-23,1.8593314647796526
2025-05-26,1.8459196165263196
2025-05-27,1.839653700062237
2025-05-28,1.8448546593403459
2025-05-29,1.8392605856501503
2025-05-30,1.8385321553419465
2025-06-03,1.8410304175664307
2025-06-04,1.8402194487068761
2025-06-05,1.83695516385924
2025-06-06,1.835586871284313
2025-06-09,1.8410800433433274
2025-06-10,1.8392443242594334
2025-06-11,1.8423440526631123
2025-06-12,1.8479605980830707
2025-06-13,1.8459532581929388
2025-06-16,1.8444229561685748
2025-06-17,1.8427337481340118
2025-06-18,1.8408384346242717
2025-06-19,1.8352784592570317
2025-06-20,1.8378091050078642
2025-06-23,1.8390966882299178
2025-06-24,1.8412187539279123
2025-06-25,1.8496212371036507
2025-06-26,1.8464455232216732
2025-06-27,1.8450132040474247
2025-06-30,1.8483407572489408
2025-07-01,1.8472710344936232
2025-07-02,1.8576212908577743
2025-07-03,1.8679070175552088
2025-07-04,1.8715530516179082
2025-07-07,1.8643522796658076
2025-07-08,1.8795170953507676
2025-07-09,1.8769824764212002
2025-07-10,1.887436557939023
2025-07-11,1.8845811141338642
2025-07-14,1.8903954170890525
2025-07-15,1.8862595582695862
2025-07-16,1.8852679747655763
2025-07-17,1.8938986988026059
2025-07-18,1.899017025280822
2025-07-21,1.9150413234571797
2025-07-22,1.941044110824553
2025-07-23,1.9365771933949754
2025-07-24,1.9503031210017152
2025-07-25,1.9290925595967765
2025-07-28,1.9321384530182786
2025-07-29,1.932141923834343
2025-07-30,1.9362980593162575
2025-07-31,1.9013221066409778
2025-08-01,1.8987320831100543
2025-08-04,1.8964031947137958
2025-08-05,1.9006644889086217
2025-08-06,1.9012995212686856
2025-08-07,1.902247287651526
2025-08-08,1.9034270060411074
2025-08-11,1.903658546394436
2025-08-12,1.907842107535248
2025-08-13,1.9136544409662712
2025-08-14,1.9114663301061332
2025-08-15,1.9189340073292818
2025-08-18,1.9245989750074666
2025-08-19,1.9132390178432954
2025-08-20,1.9223328452863033
2025-08-21,1.9292998873361529
2025-08-22,1.942212276822165
2025-08-25,1.967285987953732
2025-08-26,1.9741309769433344
2025-08-27,1.9386744310571802
2025-08-28,1.9494533283632702
2025-08-29,1.9647355140658012
2025-09-01,1.9720444031477322
2025-09-02,1.964211332750688
2025-09-03,1.9561778610957008
2025-09-04,1.939334853459418
2025-09-05,1.9702047632908597
2025-09-08,1.97773509130725
2025-09-09,1.9732441554351008
2025-09-10,1.9649353851582592
2025-09-11,1.978527767031831
2025-09-12,1.973283897513295
2025-09-15,1.978961946650189
2025-09-16,1.975587288465339
2025-09-17,1.9775528706468803
2025-09-18,1.9633303901459789
2025-09-19,1.966249505590692
2025-09-22,1.969087802961626
2025-09-23,1.9663533478595752
2025-09-24,1.974099457702167
2025-09-25,1.9793197873680894
2025-09-26,1.973508775641752
2025-09-29,1.9791164054403538
2025-09-30,1.9809626715199928
2025-10-09,1.9931277691309843
2025-10-10,1.9796934723042423
2025-10-13,1.9685200158574407
2025-10-14,1.971209448605669
2025-10-15,1.9769649259290072
2025-10-16,1.9815820065044845
2025-10-17,1.9710290068484888
2025-10-20,1.9651075230805912
2025-10-21,1.9678648228303937
2025-10-22,1.970222617675353
2025-10-23,1.9739402579466392
2025-10-24,1.9711921511912862
2025-10-27,1.9772262386209514
2025-10-28,1.9682987160873207
2025-10-29,1.9815238153067123
2025-10-30,1.9860236684792523
2025-10-31,1.9757419337422657
2025-11-03,1.9800794893001479
2025-11-04,1.975211334867648
2025-11-05,1.9781023311918244
2025-11-06,1.9793161619851165
2025-11-07,1.987183731606683
2025-11-10,2.001280067917328
2025-11-11,1.999910636711689
2025-11-12,1.9951628060758237
2025-11-13,2.012045486242799
2025-11-14,2.005057157678698
2025-11-17,1.9954545502929553
2025-11-18,1.9878582729939736
2025-11-19,1.9941531404350346
2025-11-20,1.987959831136865
2025-11-21,1.982372448844311
2025-11-24,1.9772208280365284
2025-11-25,1.9783720255341055
2025-11-26,1.9782445722119069
2025-11-27,1.9793667580434338
2025-11-28,1.979029751115553
2025-12-01,1.9805785855235296
2025-12-02,1.982769443538269
2025-12-03,1.9803739927755366
2025-12-04,1.9808606382873
2025-12-05,1.981210914056877
2025-12-08,1.9819711458771418
2025-12-09,1.9782260728892245
2025-12-10,1.9779642509997355
2025-12-11,1.9747563209889503
2025-12-12,1.981430173268815
2025-12-15,1.9769760307102708
2025-12-16,1.9713524169593397
2025-12-17,1.9738860073880442
2025-12-18,1.971281365397471
2025-12-19,1.974483109890312
2025-12-22,1.9771674333316167
2025-12-23,1.974234335281106
2025-12-24,1.975226867873485
2025-12-25,1.9760424654328161
2025-12-26,1.9818871281271169
2025-12-29,1.974723755574692
2025-12-30,1.9743127158075902
2025-12-31,1.9761718382171694
2026-01-05,1.9768325590645106
2026-01-06,1.9913474767664865
2026-01-07,1.979599149694277
2026-01-08,1.9748571509987334
2026-01-09,1.979042235973898
2026-01-12,1.989027024623498
2026-01-13,1.9780861740266011
2026-01-14,1.9741533489812222
2026-01-15,1.970012435637895
2026-01-16,1.9651369103716247
2026-01-19,1.9599151445348313
2026-01-20,1.9616513822022366
2026-01-21,1.9618344145552538
2026-01-22,1.9607962759776336
2026-01-23,1.9580163655749652
2026-01-26,1.9546838118159944
2026-01-27,1.9510165226348164
2026-01-28,1.9497986547602457
2026-01-29,1.9532343613041936
2026-01-30,1.936019708101925
2026-02-02,1.9321720268153468
2026-02-03,1.93722822562297
2026-02-04,1.9448655029187965
2026-02-05,1.9458172460068797
2026-02-06,1.940755999961547
2026-02-09,1.9424624749818067
2026-02-10,1.939136915733968
2026-02-11,1.9403043020513533
2026-02-12,1.937083625571026
2026-02-13,1.9270899101699246
2026-02-24,1.9278300628045348
2026-02-25,1.9295917921653445
2026-02-26,1.921925392750076
2026-02-27,1.920264404287303
2026-03-02,1.9220367586317715
2026-03-03,1.9240058441963057
2026-03-04,1.9238793938978185
2026-03-05,1.9195504375740085
2026-03-06,1.9202277534445669
2026-03-09,1.9266393537499342
2026-03-10,1.9203683395441182
2026-03-11,1.928671787371244
2026-03-12,1.9314476382044528
2026-03-13,1.9301560043402846
2026-03-16,1.9326676604740882
2026-03-17,1.9313059910885362
2026-03-18,1.9273933942281463
2026-03-19,1.926960814323667
2026-03-20,1.9299448838565654
2026-03-23,1.9132779005084188
2026-03-24,1.9114123732086434
2026-03-25,1.9097264374142635
2026-03-26,1.9093094145290757
2026-03-27,1.9114847202342828
2026-03-30,1.9111580619095843
2026-03-31,1.9091079026307605
2026-04-01,1.9094274065055754
2026-04-02,1.9083750745065369
2026-04-03,1.9015251007936982
2026-04-07,1.8999998685119608
2026-04-08,1.901473821201169
2026-04-09,1.9032136624320257
2026-04-10,1.9058207937935223
2026-04-13,1.9054168337709838
2026-04-14,1.9065459935397584
2026-04-15,1.9061224001991477
2026-04-16,1.908861284832906
2026-04-17,1.901364723831416
2026-04-20,1.903858259474369
2026-04-21,1.9054103520712353
2026-04-22,1.9063233049520454
2026-04-23,1.9024587757587796
2026-04-24,1.8973281668947528
2026-04-27,1.896372958615503
2026-04-28,1.8952401799832082
2026-04-29,1.9002433819629674
2026-04-30,1.9011362719238374
2026-05-06,1.9067937275853035
2026-05-07,1.9009669435897514
2026-05-08,1.896888991200849
2026-05-11,1.908784401126118
2026-05-12,1.9027171424429168
2026-05-13,1.9010299525846863
2026-05-14,1.8874297582953599
2026-05-15,1.8860160957437677
2026-05-18,1.8784055514258677
2026-05-19,1.8778892850433806
2026-05-20,1.8749622494246405
2026-05-21,1.8742913900134668
2026-05-22,1.8731166290582493
2026-05-25,1.8753341729296311
2026-05-26,1.8740315719877925
2026-05-27,1.8734651772875424
2026-05-28,1.8718939976832416
2026-05-29,1.873206455190461
2026-06-01,1.8762902922347624
2026-06-02,1.8764794936471014
2026-06-03,1.876674959616523
2026-06-04,1.8756846837754557
2026-06-05,1.8751518968066618
2026-06-08,1.8785106644710428
2026-06-09,1.8756178196247872
2026-06-10,1.8739008806749833
2026-06-11,1.8749850469605538
2026-06-12,1.8741880175034276
2026-06-15,1.8672757282969235
2026-06-16,1.861097545549603
2026-06-17,1.8567521251457189
2026-06-18,1.850998862025425
2026-06-22,1.8537298820334382
2026-06-23,1.849976589361577
2026-06-24,1.8541938918419585
2026-06-25,1.8574684669497494
2026-06-26,1.8465310382880158
2026-06-29,1.8523956875409198
2026-06-30,1.852626236859688
2026-07-01,1.860040050921833
2026-07-02,1.8591148101959853
2026-07-03,1.86145438849826
2026-07-06,1.8670172598410888
2026-07-07,1.860611081006079
2026-07-08,1.8557484624287812
2026-07-09,1.8628433835993072
2026-07-10,1.8598918376186981
2026-07-13,1.8580113244363818
2026-07-14,1.867859795851055
2026-07-15,1.8847439814053009
2026-07-16,1.8856418611162693
2026-07-17,1.8688952328936328
2026-07-20,1.896385694592212
2026-07-21,1.8874930840166908
2026-07-22,1.8978630628256523
2026-07-23,1.8934185065726754
2026-07-24,1.8725561159010036
2026-07-27,1.8829692688337858
2026-07-28,1.8974408039633264
2026-07-29,1.9170942700610336
2026-07-30,1.952847699050264
2026-07-31,1.943775109583769
2026-08-03,1.9397194520878613
2026-08-04,1.9124174688942994
2026-08-05,1.909548929321045
2026-08-06,1.8940304624986593
2026-08-07,1.8970394301701923
2026-08-10,1.9027194101264537
2026-08-11,1.8885906541608333
2026-08-12,1.8952854616710295
2026-08-13,1.887718721241299
2026-08-14,1.883522518606305
2026-08-17,1.8816074795842368
2026-08-18,1.8808781180965537
2026-08-19,1.8769545921141866
2026-08-20,1.880709544404739
2026-08-21,1.8759018630911484
2026-08-24,1.8765584277933753
2026-08-25,1.8790384713949788
2026-08-26,1.880515936802523
2026-08-27,1.880139767743066
2026-08-28,1.882662173287255
2026-08-31,1.88280880592408
2026-09-01,1.8874486780564015
2026-09-02,1.8827290589050367
2026-09-03,1.884373532501306
2026-09-04,1.89014135507324
2026-09-07,1.8801109133128493
2026-09-08,1.8828245083220174
2026-09-09,1.8805532435374204
2026-09-10,1.8793142167176609
2026-09-11,1.8762287370484159
2026-09-14,1.8744619868464512
2026-09-15,1.8681887836583109
2026-09-16,1.8659114230222114
2026-09-17,1.8657592278868373
2026-09-18,1.86484377671518
2026-09-21,1.8684962746915217
2026-09-22,1.8685880709330283
2026-09-23,1.8677470606188493
