date,equity
2018-10-16,1.0
2018-10-17,1.0
2018-10-18,1.0
2018-10-19,1.0
2018-10-22,1.0
2018-10-23,1.0
2018-10-24,1.0
2018-10-25,1.0
2018-10-26,1.0
2018-10-29,1.0
2018-10-30,1.0
2018-10-31,1.0
2018-11-01,1.0
2018-11-02,1.0
2018-11-05,1.0
2018-11-06,1.0
2018-11-07,1.0
2018-11-08,1.0
2018-11-09,1.0
2018-11-12,1.0
2018-11-13,0.9999736842105263
2018-11-14,0.9995368642295236
2018-11-15,1.000276963717494
2018-11-16,1.003035306314326
2018-11-19,1.0057313269395263
2018-11-20,0.9948552749069892
2018-11-21,0.995076670320512
2018-11-22,0.9954045635449723
2018-11-23,0.984208438494397
2018-11-26,0.9857108238461825
2018-11-27,0.986476694775308
2018-11-28,0.9901631653544768
2018-11-29,0.9866916376527174
2018-11-30,0.9877131162422991
2018-12-03,1.0139999292889226
2018-12-04,1.014597417368623
2018-12-05,1.033386330972681
2018-12-06,1.0107899146079005
2018-12-07,1.0085982743205362
2018-12-10,0.999973605707424
2018-12-11,1.0013414496909703
2018-12-12,1.0030491716267462
2018-12-13,1.0147456910545984
2018-12-14,1.0050013443211545
2018-12-17,1.0019315664904043
2018-12-18,0.9987575344742647
2018-12-19,0.9918676412218266
2018-12-20,0.986456528674762
2018-12-21,0.9864429084966366
2018-12-24,0.9863783528216793
2018-12-25,0.9856712238635887
2018-12-26,0.9866528086843123
2018-12-27,0.98682456845193
2018-12-28,0.9873920501579945
2019-01-02,0.9847012580797156
2019-01-03,0.9851346020845162
2019-01-04,0.9844225546857481
2019-01-07,0.9841625345140002
2019-01-08,0.9845108465567437
2019-01-09,0.9835966052365874
2019-01-10,0.9814866382965585
2019-01-11,0.9826191473175343
2019-01-14,0.9808436290984578
2019-01-15,0.9850877937100989
2019-01-16,0.9860319423772931
2019-01-17,0.9835707776169985
2019-01-18,1.0014714343272584
2019-01-21,1.0044254477915207
2019-01-22,0.982072266208003
2019-01-23,0.9886748665195412
2019-01-24,1.0062902536695666
2019-01-25,1.0159720315278313
2019-01-28,1.0221634350075735
2019-01-29,1.0393989613352994
2019-01-30,1.0289631598514388
2019-01-31,1.0532326095897107
2019-02-01,1.0688684935912651
2019-02-11,1.0979971678451144
2019-02-12,1.1094396454901359
2019-02-13,1.1309505758183875
2019-02-14,1.1430578741749249
2019-02-15,1.1133909125320451
2019-02-18,1.1742748677996993
2019-02-19,1.1670803365992852
2019-02-20,1.185155440069497
2019-02-21,1.1857779476735906
2019-02-22,1.2130523657515484
2019-02-25,1.2906201874108458
2019-02-26,1.2668326063243174
2019-02-27,1.248482970942163
2019-02-28,1.2598984798930501
2019-03-01,1.3105616600398842
2019-03-04,1.3380706224600294
2019-03-05,1.3466216463891691
2019-03-06,1.3489697423311908
2019-03-07,1.3056409246145355
2019-03-08,1.2474918873716994
2019-03-11,1.2756219202056034
2019-03-12,1.2812147927817048
2019-03-13,1.2631282429940027
2019-03-14,1.263496360179187
2019-03-15,1.284864818014571
2019-03-18,1.3211489749575287
2019-03-19,1.3114269725984764
2019-03-20,1.3042518507839165
2019-03-21,1.297635782739868
2019-03-22,1.2995386711663668
2019-03-25,1.2727388226126588
2019-03-26,1.2705220949844387
2019-03-27,1.287187290332405
2019-03-28,1.2934384218224455
2019-03-29,1.3254131380728047
2019-04-01,1.3474149485722589
2019-04-02,1.3404380894297765
2019-04-03,1.3500578834587744
2019-04-04,1.3622596012769532
2019-04-08,1.3590541704785697
2019-04-09,1.3722080425171388
2019-04-10,1.3882018977614268
2019-04-11,1.3475806219558812
2019-04-12,1.34089629505592
2019-04-15,1.3427259773741211
2019-04-16,1.3740608967273633
2019-04-17,1.38761753959258
2019-04-18,1.3858930954326054
2019-04-19,1.4023321856649906
2019-04-22,1.375805126608544
2019-04-23,1.3757879359480494
2019-04-24,1.3799826405982745
2019-04-25,1.3646110226087467
2019-04-26,1.3460661372986222
2019-04-29,1.3559944147076604
2019-04-30,1.3532081771405127
2019-05-06,1.3262393384675317
2019-05-07,1.333921760093112
2019-05-08,1.3311000347848498
2019-05-09,1.3294670034218465
2019-05-10,1.3364578914473884
2019-05-13,1.335174844455005
2019-05-14,1.3351987616147158
2019-05-15,1.340225268539328
2019-05-16,1.3398665591087295
2019-05-17,1.3315332912418658
2019-05-20,1.324628048703254
2019-05-21,1.326362294613292
2019-05-22,1.3255740263522693
2019-05-23,1.3189418665468742
2019-05-24,1.3186800615332501
2019-05-27,1.321187148211828
2019-05-28,1.325042186629583
2019-05-29,1.323921647310781
2019-05-30,1.3228277172356122
2019-05-31,1.3220057909392433
2019-06-03,1.321611107266051
2019-06-04,1.3174475693409629
2019-06-05,1.3199110232426865
2019-06-06,1.3109841796180972
2019-06-10,1.3194473163310008
2019-06-11,1.3327353339407784
2019-06-12,1.3307902341543685
2019-06-13,1.327089586394337
2019-06-14,1.3268197392404106
2019-06-17,1.3282341974250045
2019-06-18,1.3331687814109543
2019-06-19,1.3413201110109374
2019-06-20,1.3715544596194358
2019-06-21,1.3702444432081302
2019-06-24,1.3808433509189502
2019-06-25,1.3718984334608724
2019-06-26,1.3689546468376448
2019-06-27,1.3952866177412104
2019-06-28,1.3965175376162156
2019-07-01,1.4413308321577152
2019-07-02,1.4457464775756201
2019-07-03,1.4249335079035221
2019-07-04,1.4117368969288127
2019-07-05,1.4278738840490466
2019-07-08,1.390563626798389
2019-07-09,1.3897384425609611
2019-07-10,1.3934242389784308
2019-07-11,1.389330974177821
2019-07-12,1.3948305153377922
2019-07-15,1.3993603158062804
2019-07-16,1.3886462797289778
2019-07-17,1.3923477663559962
2019-07-18,1.3848966095755635
2019-07-19,1.3918135367449394
2019-07-22,1.3944971249471492
2019-07-23,1.4022695105888516
2019-07-24,1.406838029815084
2019-07-25,1.4143839726256724
2019-07-26,1.4209001654621287
2019-07-29,1.4220033757738197
2019-07-30,1.4222628851631929
2019-07-31,1.4152724633649096
2019-08-01,1.4135136844998748
2019-08-02,1.403207484403614
2019-08-05,1.3873876555970006
2019-08-06,1.382428920702822
2019-08-07,1.382048039579458
2019-08-08,1.3864649086646492
2019-08-09,1.3819616709552074
2019-08-12,1.3839610025025257
2019-08-13,1.3860207460473433
2019-08-14,1.3854688848844992
2019-08-15,1.3877174571921829
2019-08-16,1.3884767579289963
2019-08-19,1.3967837261143516
2019-08-20,1.4009867200124542
2019-08-21,1.3982798642520518
2019-08-22,1.4015262204628065
2019-08-23,1.4092780272797418
2019-08-26,1.4014678026084042
2019-08-27,1.4176178289431984
2019-08-28,1.418126734685303
2019-08-29,1.4159515080405114
2019-08-30,1.4209092055709638
2019-09-02,1.4354296711263619
2019-09-03,1.4376597406253078
2019-09-04,1.4336892978936602
2019-09-05,1.4382765674121047
2019-09-06,1.4414328490627677
2019-09-09,1.4443477974234773
2019-09-10,1.4388280676279979
2019-09-11,1.4190158763841718
2019-09-12,1.4240107288773245
2019-09-16,1.419889389724406
2019-09-17,1.4071851890361255
2019-09-18,1.40762138575232
2019-09-19,1.4107534626753726
2019-09-20,1.4155502339926562
2019-09-23,1.4046183342892045
2019-09-24,1.4052015776251008
2019-09-25,1.4003620024628636
2019-09-26,1.3963313741834829
2019-09-27,1.3977830532752809
2019-09-30,1.3933276631246159
2019-10-08,1.392756265488071
2019-10-09,1.3888203434208595
2019-10-10,1.3900265917696013
2019-10-11,1.3918262841266775
2019-10-14,1.3943208941029999
2019-10-15,1.395305722503871
2019-10-16,1.394010856917898
2019-10-17,1.3959739713699288
2019-10-18,1.3880104736300853
2019-10-21,1.3924127677438567
2019-10-22,1.3949936911315932
2019-10-23,1.389839496238563
2019-10-24,1.3895813758305524
2019-10-25,1.3986010505771822
2019-10-28,1.3981871515148443
2019-10-29,1.402151405174354
2019-10-30,1.4009510593248515
2019-10-31,1.3995410201356584
2019-11-01,1.4160931322478079
2019-11-04,1.4242641150912538
2019-11-05,1.4347215717539332
2019-11-06,1.4368002645907094
2019-11-07,1.4402279429688027
2019-11-08,1.441516509890983
2019-11-11,1.4217046945682428
2019-11-12,1.4206664879800661
2019-11-13,1.4282337715589872
2019-11-14,1.4270443193904638
2019-11-15,1.4229475947014802
2019-11-18,1.4248661958140398
2019-11-19,1.437404043443947
2019-11-20,1.4279162074988088
2019-11-21,1.4252988820909318
2019-11-22,1.4196616071514288
2019-11-25,1.427606913639196
2019-11-26,1.4328722429166167
2019-11-27,1.4298535772692427
2019-11-28,1.4286046351726367
2019-11-29,1.4219459623512214
2019-12-02,1.4302536886054176
2019-12-03,1.4355039263967915
2019-12-04,1.434145048713132
2019-12-05,1.4392226953184106
2019-12-06,1.444619763038477
2019-12-09,1.4487190813972701
2019-12-10,1.454244933252847
2019-12-11,1.4507662125833516
2019-12-12,1.4449880650920728
2019-12-13,1.4533872518633515
2019-12-16,1.455159531640081
2019-12-17,1.4646669606602265
2019-12-18,1.4581487792574845
2019-12-19,1.457923621085865
2019-12-20,1.4550784427378385
2019-12-23,1.4441404266053322
2019-12-24,1.457308322578526
2019-12-25,1.461132644798538
2019-12-26,1.4699721954080116
2019-12-27,1.4697899961158412
2019-12-30,1.4865350436903393
2019-12-31,1.488797337893753
2020-01-02,1.5122753013382726
2020-01-03,1.5129308578881406
2020-01-06,1.5098593504717364
2020-01-07,1.5136777355005497
2020-01-08,1.4998129246300969
2020-01-09,1.5179987924864045
2020-01-10,1.5149956392130413
2020-01-13,1.5310604467856483
2020-01-14,1.5279381091897841
2020-01-15,1.523738906770355
2020-01-16,1.520917981391918
2020-01-17,1.5226563421279464
2020-01-20,1.5328129244354083
2020-01-21,1.5126932737105079
2020-01-22,1.5251539675633337
2020-01-23,1.5021882276782823
2020-02-03,1.4767633929139572
2020-02-04,1.4923605302029959
2020-02-05,1.5113753914954349
2020-02-06,1.5183156891248217
2020-02-07,1.5115262636830609
2020-02-10,1.5159018522367724
2020-02-11,1.5138728648859276
2020-02-12,1.5149508776613345
2020-02-13,1.5155703210660445
2020-02-14,1.5150200136699674
2020-02-17,1.5300045593657963
2020-02-18,1.5338251850264282
2020-02-19,1.53153198470129
2020-02-20,1.54789729388367
2020-02-21,1.5511994985160154
2020-02-24,1.5550584778171148
2020-02-25,1.5699029596667808
2020-02-26,1.5392988401223895
2020-02-27,1.5371774131533797
2020-02-28,1.5127004117758798
2020-03-02,1.533515206445514
2020-03-03,1.531494867006977
2020-03-04,1.5339577996647553
2020-03-05,1.5428909352011047
2020-03-06,1.5201153018233784
2020-03-09,1.4862170299690036
2020-03-10,1.5070901211428427
2020-03-11,1.4902022964560404
2020-03-12,1.4700354722081093
2020-03-13,1.4563629467588557
2020-03-16,1.4360547966272597
2020-03-17,1.4360547966272597
2020-03-18,1.4360547966272597
2020-03-19,1.4360170057115589
2020-03-20,1.4356118740190675
2020-03-23,1.4333107484964414
2020-03-24,1.4369056512056524
2020-03-25,1.437700744107204
2020-03-26,1.4418516581281373
2020-03-27,1.4402096941283542
2020-03-30,1.4410334445943918
2020-03-31,1.4404863255479696
2020-04-01,1.4389729350351779
2020-04-02,1.4394182041415144
2020-04-03,1.4406233148492529
2020-04-07,1.4423804369511004
2020-04-08,1.4412480193134596
2020-04-09,1.44193693809916
2020-04-10,1.43932219836551
2020-04-13,1.4418554890423343
2020-04-14,1.4448233191232434
2020-04-15,1.437920516532736
2020-04-16,1.4405984567321626
2020-04-17,1.4501643101368247
2020-04-20,1.4563836019325733
2020-04-21,1.4438238839722104
2020-04-22,1.4532318535655828
2020-04-23,1.4546057848768694
2020-04-24,1.449736842771879
2020-04-27,1.4482586369969974
2020-04-28,1.4719875653658827
2020-04-29,1.4708716456853161
2020-04-30,1.485017247965256
2020-05-06,1.4857503362948496
2020-05-07,1.4803629333998227
2020-05-08,1.489552981652837
2020-05-11,1.4858407618628506
2020-05-12,1.4951035174829697
2020-05-13,1.497082498152675
2020-05-14,1.4792449341954348
2020-05-15,1.4760544126169592
2020-05-18,1.478374509129636
2020-05-19,1.4883445620455384
2020-05-20,1.4808059241168434
2020-05-21,1.47157767579475
2020-05-22,1.4441580406233387
2020-05-25,1.4581093193853594
2020-05-26,1.4634208236939936
2020-05-27,1.4698712704083
2020-05-28,1.4661830076848834
2020-05-29,1.475719255840071
2020-06-01,1.49214409654477
2020-06-02,1.4875523157074906
2020-06-03,1.4890477593820675
2020-06-04,1.4823509385036069
2020-06-05,1.493718032865668
2020-06-08,1.5062946811362523
2020-06-09,1.5221109825237125
2020-06-10,1.5162114008453902
2020-06-11,1.506342287307925
2020-06-12,1.5061446939012406
2020-06-15,1.4884619642317625
2020-06-16,1.50084223237962
2020-06-17,1.5013379737611048
2020-06-18,1.507676465244375
2020-06-19,1.5213876095586916
2020-06-22,1.5257185727273446
2020-06-23,1.5443979426459726
2020-06-24,1.5530029469649846
2020-06-29,1.5573781848299892
2020-06-30,1.578726800310388
2020-07-01,1.6058060788598585
2020-07-02,1.6261450228609764
2020-07-03,1.648718367431318
2020-07-06,1.7644863909348294
2020-07-07,1.7784699465925817
2020-07-08,1.8019817112654224
2020-07-09,1.8387236888801524
2020-07-10,1.8003003829646
2020-07-13,1.8586649138406288
2020-07-14,1.8407256220414638
2020-07-15,1.8363646138808825
2020-07-16,1.7159913807260396
2020-07-17,1.7337029218233262
2020-07-20,1.7723628347256037
2020-07-21,1.7918956904621837
2020-07-22,1.7991372622452013
2020-07-23,1.8238604270724237
2020-07-24,1.766036197202329
2020-07-27,1.7860995223097709
2020-07-28,1.7841299568262459
2020-07-29,1.8103611906551373
2020-07-30,1.820100834123104
2020-07-31,1.8349133479827242
2020-08-03,1.8499499763821388
2020-08-04,1.844928599710686
2020-08-05,1.8550459997851656
2020-08-06,1.8485316564705732
2020-08-07,1.8470151925400171
2020-08-10,1.8404562829326168
2020-08-11,1.81655453567758
2020-08-12,1.7954194270571424
2020-08-13,1.7972020979330245
2020-08-14,1.799362570374852
2020-08-17,1.814215338671179
2020-08-18,1.8156705097868688
2020-08-19,1.8078208017089663
2020-08-20,1.7960810778481069
2020-08-21,1.7974515454579
2020-08-24,1.8054223781360712
2020-08-25,1.808204937113362
2020-08-26,1.810516017439053
2020-08-27,1.8097363241049627
2020-08-28,1.8245933857413565
2020-08-31,1.828498979276571
2020-09-01,1.8308122574609116
2020-09-02,1.8275584930335478
2020-09-03,1.8324062016093356
2020-09-04,1.8228279119408284
2020-09-07,1.8073526202089167
2020-09-08,1.810610945142558
2020-09-09,1.7943456141907297
2020-09-10,1.8028887226665165
2020-09-11,1.8113722575694435
2020-09-14,1.8193854888249048
2020-09-15,1.8274675456512184
2020-09-16,1.8333335723217585
2020-09-17,1.8334830395250663
2020-09-18,1.8442665036701757
2020-09-21,1.8290523894119541
2020-09-22,1.8128682662732527
2020-09-23,1.8157401580966546
2020-09-24,1.795458684652566
2020-09-25,1.7978331233431273
2020-09-28,1.808621660342319
2020-09-29,1.8070340039593507
2020-09-30,1.8142909004075791
2020-10-09,1.8330243103992778
2020-10-12,1.8639942633183417
2020-10-13,1.8797567091873957
2020-10-14,1.8758991036957229
2020-10-15,1.8705563762556614
2020-10-16,1.863612610585012
2020-10-19,1.8472870850272878
2020-10-20,1.8732241443467608
2020-10-21,1.8702337455153806
2020-10-22,1.8722052673792
2020-10-23,1.8449624598084677
2020-10-26,1.849076118138731
2020-10-27,1.8489658037591465
2020-10-28,1.8627022242706617
2020-10-29,1.8720690121609351
2020-10-30,1.859309713302433
2020-11-02,1.8927848506060052
2020-11-03,1.9033944979171666
2020-11-04,1.9194004090486803
2020-11-05,1.9399503247122536
2020-11-06,1.9557260821475009
2020-11-09,1.9719102103748154
2020-11-10,1.9645896489673378
2020-11-11,1.945707632675421
2020-11-12,1.951599923773253
2020-11-13,1.9338084914142577
2020-11-16,1.9540975997018766
2020-11-17,1.949148694861102
2020-11-18,1.944830545603957
2020-11-19,1.9474183709073656
2020-11-20,1.9574740752718465
2020-11-23,1.9825593351238313
2020-11-24,1.9725745221698385
2020-11-25,1.9570133524222146
2020-11-26,1.9674384171518664
2020-11-27,1.9901932139942595
2020-11-30,1.9852050646924508
2020-12-01,2.008701704752139
2020-12-02,2.008277911166086
2020-12-03,1.9888396071112302
2020-12-04,1.9895691684151149
2020-12-07,1.9661049165528799
2020-12-08,1.9611892246252267
2020-12-09,1.9499810294055338
2020-12-10,1.9471278033309956
2020-12-11,1.9450106779087362
2020-12-14,1.9428002406987042
2020-12-15,1.9478452342547992
2020-12-16,1.954404855210478
2020-12-17,1.9691144722066138
2020-12-18,1.9683746650229974
2020-12-21,1.994553827499386
2020-12-22,1.9886907647429597
2020-12-23,2.006757012292694
2020-12-24,2.001223754736115
2020-12-25,2.0180072249395864
2020-12-28,2.0314648088652616
2020-12-29,2.0107056099052145
2020-12-30,2.0470569575364785
2020-12-31,2.0710136202521388
2021-01-04,2.1102621242895094
2021-01-05,2.1632691458514532
2021-01-06,2.173275926807427
2021-01-07,2.230658460625699
2021-01-08,2.20674741610096
2021-01-11,2.191172415735846
2021-01-12,2.2562358422591555
2021-01-13,2.2387318952507997
2021-01-14,2.1852957677068288
2021-01-15,2.1862452764685436
2021-01-18,2.204039622219314
2021-01-19,2.171648150157744
2021-01-20,2.175353470852322
2021-01-21,2.194880395121508
2021-01-22,2.182264886581939
2021-01-25,2.191143087349502
2021-01-26,2.161304328348518
2021-01-27,2.1844888855839355
2021-01-28,2.149146033017655
2021-01-29,2.1407502501349183
2021-02-01,2.1408896929035466
2021-02-02,2.1452254917648084
2021-02-03,2.145858735830435
2021-02-04,2.142463769346237
2021-02-05,2.1540790652099164
2021-02-08,2.1724831115239414
2021-02-09,2.187938871258039
2021-02-10,2.2250697865320763
2021-02-18,2.2139373972770056
2021-02-19,2.200667707260752
2021-02-22,2.1559420266807967
2021-02-23,2.158346562792955
2021-02-24,2.122192703680634
2021-02-25,2.132922361298288
2021-02-26,2.098153910368828
2021-03-01,2.1070543066752765
2021-03-02,2.0943327771124327
2021-03-03,2.107775944396838
2021-03-04,2.097733546975321
2021-03-05,2.094956383610106
2021-03-08,2.0940167230460114
2021-03-09,2.0914666331234857
2021-03-10,2.085022609531495
2021-03-11,2.092139525076414
2021-03-12,2.0978501318265708
2021-03-15,2.1005384786400985
2021-03-16,2.1014640038926897
2021-03-17,2.092349592176245
2021-03-18,2.090798860753503
2021-03-19,2.0759067865812777
2021-03-22,2.082286321736649
2021-03-23,2.0751219192787995
2021-03-24,2.0702780576561883
2021-03-25,2.071586873942117
2021-03-26,2.0705840682503833
2021-03-29,2.074555462792828
2021-03-30,2.0777373967797605
2021-03-31,2.0756549194322687
2021-04-01,2.0791295481681
2021-04-02,2.0832182160041834
2021-04-06,2.07400739595506
2021-04-07,2.0637982326954583
2021-04-08,2.065301223717967
2021-04-09,2.047760701867144
2021-04-12,2.040872873361128
2021-04-13,2.035940094611732
2021-04-14,2.0393312310101672
2021-04-15,2.038675436834264
2021-04-16,2.045417900768429
2021-04-19,2.071516705743606
2021-04-20,2.072739608945658
2021-04-21,2.078682376332775
2021-04-22,2.080170109458381
2021-04-23,2.0877540410769173
2021-04-26,2.0762573804353566
2021-04-27,2.079514084451359
2021-04-28,2.100784957193721
2021-04-29,2.10828872464901
2021-04-30,2.114665165472404
2021-05-06,2.0950245854132628
2021-05-07,2.070788988068683
2021-05-10,2.0808683257314873
2021-05-11,2.0783722040207095
2021-05-12,2.0858062520329637
2021-05-13,2.0741152483938152
2021-05-14,2.086607040472239
2021-05-17,2.103352791804818
2021-05-18,2.1028268741377487
2021-05-19,2.0980625288451993
2021-05-20,2.0884233810897794
2021-05-21,2.0795568528972512
2021-05-24,2.088919022589678
2021-05-25,2.1149610522610898
2021-05-26,2.115822288820167
2021-05-27,2.1143218797629393
2021-05-28,2.123768454571943
2021-05-31,2.1316295185681007
2021-06-01,2.1337786712143734
2021-06-02,2.1177317348538347
2021-06-03,2.1082664753795233
2021-06-04,2.1191368742148953
2021-06-07,2.114505362406989
2021-06-08,2.107107925783496
2021-06-09,2.1060694894057246
2021-06-10,2.119983475222763
2021-06-11,2.120601278303902
2021-06-15,2.1183393852477312
2021-06-16,2.096325113938957
2021-06-17,2.1059001463386053
2021-06-18,2.1137259317238084
2021-06-21,2.111687760789074
2021-06-22,2.1104040605566587
2021-06-23,2.115829574906796
2021-06-24,2.120825706025737
2021-06-25,2.1246063535065636
2021-06-28,2.1305169342921535
2021-06-29,2.1309457190378516
2021-06-30,2.1337976796512437
2021-07-01,2.1257176187201368
2021-07-02,2.1017140553738747
2021-07-05,2.109808005195347
2021-07-06,2.096029649011526
2021-07-07,2.110496805572817
2021-07-08,2.110190484218883
2021-07-09,2.1120414712536597
2021-07-12,2.116461105888157
2021-07-13,2.110961162607274
2021-07-14,2.095624806107763
2021-07-15,2.0966544071963527
2021-07-16,2.08811596008267
2021-07-19,2.089241889295842
2021-07-20,2.090165818505576
2021-07-21,2.1072692025113513
2021-07-22,2.1040471029392878
2021-07-23,2.101609951533862
2021-07-26,2.081608837292112
2021-07-27,2.057219891968975
2021-07-28,2.0523851194292106
2021-07-29,2.0652684138989423
2021-07-30,2.0744424825616234
2021-08-02,2.0849721475604004
2021-08-03,2.0789723639002538
2021-08-04,2.0970405389234594
2021-08-05,2.096418250517356
2021-08-06,2.0920276946882925
2021-08-09,2.09046520030576
2021-08-10,2.088261774814976
2021-08-11,2.080188961690148
2021-08-12,2.0890078938668353
2021-08-13,2.08119259529425
2021-08-16,2.080104671756034
2021-08-17,2.0736200845998694
2021-08-18,2.0771597833277466
2021-08-19,2.0639073163988946
2021-08-20,2.059978515838927
2021-08-23,2.0612602134428544
2021-08-24,2.062183580002087
2021-08-25,2.0642614071210517
2021-08-26,2.0586812338483473
2021-08-27,2.064847706252554
2021-08-30,2.0709895001659167
2021-08-31,2.0866900639499146
2021-09-01,2.0843409537264637
2021-09-02,2.097871436479306
2021-09-03,2.0878612759471853
2021-09-06,2.096040609139946
2021-09-07,2.108221265385771
2021-09-08,2.1036820929072504
2021-09-09,2.1242601639724796
2021-09-10,2.126861916071032
2021-09-13,2.137929594655841
2021-09-14,2.107125798545508
2021-09-15,2.093746680358139
2021-09-16,2.086979013867908
2021-09-17,2.082677093651126
2021-09-22,2.099967695277409
2021-09-23,2.094000804557404
2021-09-24,2.084882164057338
2021-09-27,2.0899322374254674
2021-09-28,2.0978744633501787
2021-09-29,2.09423800553151
2021-09-30,2.099913604107328
2021-10-08,2.111388817425882
2021-10-11,2.111382707576575
2021-10-12,2.1097051074131237
2021-10-13,2.1187509006435947
2021-10-14,2.1104424400787187
2021-10-15,2.1095610647669605
2021-10-18,2.0805389901213323
2021-10-19,2.084036810914125
2021-10-20,2.0814110113101236
2021-10-21,2.0780785559591948
2021-10-22,2.0851236782239697
2021-10-25,2.083959089827213
2021-10-26,2.074232014246117
2021-10-27,2.064109271166703
2021-10-28,2.06702148661786
2021-10-29,2.085388401932603
2021-11-01,2.0841831855457493
2021-11-02,2.0779427936234853
2021-11-03,2.063667813556031
2021-11-04,2.0724871687420237
2021-11-05,2.0681954532121973
2021-11-08,2.065021320534651
2021-11-09,2.0628399623978626
2021-11-10,2.053934398077627
2021-11-11,2.0583090319623403
2021-11-12,2.0552960558325446
2021-11-15,2.048028592095999
2021-11-16,2.0459744717277815
2021-11-17,2.0428362229016788
2021-11-18,2.035862049512842
2021-11-19,2.0440926803317074
2021-11-22,2.036976792743421
2021-11-23,2.0358388416153006
2021-11-24,2.034111410138444
2021-11-25,2.030502386359996
2021-11-26,2.0246616059479643
2021-11-29,2.0270204531461493
2021-11-30,2.0232775728959504
2021-12-01,2.0222133092205477
2021-12-02,2.023146836174619
2021-12-03,2.0408863269489292
2021-12-06,2.035179266313675
2021-12-07,2.0330804414759855
2021-12-08,2.0399674385467903
2021-12-09,2.052059970866158
2021-12-10,2.041354694076432
2021-12-13,2.05215338849081
2021-12-14,2.0393335451753654
2021-12-15,2.0314677411622486
2021-12-16,2.0449176224873566
2021-12-17,2.025190613843147
2021-12-20,2.018836332705815
2021-12-21,2.0287935679127913
2021-12-22,2.0272302259664357
2021-12-23,2.0369820702534223
2021-12-24,2.0375500219537286
2021-12-27,2.0360336632825367
2021-12-28,2.0311210047258523
2021-12-29,2.020236336671044
2021-12-30,2.022249113839366
2021-12-31,2.027778933700304
2022-01-04,2.036556126328402
2022-01-05,2.033633186070904
2022-01-06,2.0229012094341634
2022-01-07,2.0422495694181957
2022-01-10,2.0518292135105036
2022-01-11,2.043975541118306
2022-01-12,2.036749367097206
2022-01-13,2.028099371174848
2022-01-14,2.0072678956619288
2022-01-17,2.005584557894012
2022-01-18,2.019542297777874
2022-01-19,2.02318210477217
2022-01-20,2.0332982723629014
2022-01-21,2.027738023903908
2022-01-24,2.0226514318068856
2022-01-25,2.007885439652235
2022-01-26,2.0086112304345836
2022-01-27,1.9995176547085824
2022-01-28,1.9885866246441968
2022-02-07,2.007555867692448
2022-02-08,2.019976549094862
2022-02-09,2.022175889281541
2022-02-10,2.0339256223644586
2022-02-11,2.0419897490070693
2022-02-14,2.0252654062934954
2022-02-15,2.0119675019748797
2022-02-16,2.0168597526167162
2022-02-17,2.0182598470756163
2022-02-18,2.029879411728988
2022-02-21,2.026321272161815
2022-02-22,2.0180973427863207
2022-02-23,2.0053692745212124
2022-02-24,1.9975707702164311
2022-02-25,1.9923078296561694
2022-02-28,1.9954176085271802
2022-03-01,1.9988356175089872
2022-03-02,2.001862438808389
2022-03-03,2.00185739940857
2022-03-04,1.999657369449362
2022-03-07,1.9969637205801727
2022-03-08,1.985662737358537
2022-03-09,1.9871991058900853
2022-03-10,1.9878510647252166
2022-03-11,1.9889898363258738
2022-03-14,1.981267462537769
2022-03-15,1.962201574981323
2022-03-16,1.9701732392625244
2022-03-17,1.9728520668743659
2022-03-18,1.9737164358649029
2022-03-21,1.9809908372989522
2022-03-22,1.9782667198523316
2022-03-23,1.9737802647397364
2022-03-24,1.973212968468274
2022-03-25,1.9685925829106448
2022-03-28,1.9680504384536175
2022-03-29,1.9747557132089995
2022-03-30,1.972881362335322
2022-03-31,1.9731724466261582
2022-04-01,1.9763097168220423
2022-04-06,1.9759007782067466
2022-04-07,1.9673516834114269
2022-04-08,1.9761407655036929
2022-04-11,1.9646599430019414
2022-04-12,1.9617584681347398
2022-04-13,1.9675931270737352
2022-04-14,1.9782775962681367
2022-04-15,1.974764447698779
2022-04-18,1.953293604506049
2022-04-19,1.950629199647129
2022-04-20,1.9346322334135089
2022-04-21,1.9291220368259439
2022-04-22,1.9334160284083013
2022-04-25,1.9177809769546237
2022-04-26,1.9219810654750689
2022-04-27,1.9284146343896669
2022-04-28,1.9282214749911049
2022-04-29,1.9418386328606076
2022-05-05,1.9360692528131311
2022-05-06,1.915819785882278
2022-05-09,1.9076306804250502
2022-05-10,1.9162982610300943
2022-05-11,1.9174340507653496
2022-05-12,1.9177302735310553
2022-05-13,1.9281292602452624
2022-05-16,1.922290070740087
2022-05-17,1.933175251465951
2022-05-18,1.9331017213358208
2022-05-19,1.9433650964611195
2022-05-20,1.9503837442539558
2022-05-23,1.9453387461695586
2022-05-24,1.9358515048095035
2022-05-25,1.9435869031043826
2022-05-26,1.9421478457493329
2022-05-27,1.9436308629837864
2022-05-30,1.9425971384885432
2022-05-31,1.9468616030508772
2022-06-01,1.9439138677628167
2022-06-02,1.9498057015857462
2022-06-06,1.9747718199979996
2022-06-07,1.9714119761018223
2022-06-08,1.9911958320689396
2022-06-09,1.967225391817216
2022-06-10,1.9911837079443806
2022-06-13,1.967311437532425
2022-06-14,1.9827620214476245
2022-06-15,1.9964164447619075
2022-06-16,1.9830934540097929
2022-06-17,1.9997431555467342
2022-06-20,2.0084978891587486
2022-06-21,2.0109465807471274
2022-06-22,1.9912001336079796
2022-06-23,2.0156154984741623
2022-06-24,2.0392892421342084
2022-06-27,2.0609998419408075
2022-06-28,2.080973652349196
2022-06-29,2.049346629243365
2022-06-30,2.081830113262394
2022-07-01,2.070128345935211
2022-07-04,2.090108235748699
2022-07-05,2.083808600574102
2022-07-06,2.048056647287243
2022-07-07,2.042487642030269
2022-07-08,2.0486539802578854
2022-07-11,2.035689216301709
2022-07-12,2.035360267369793
2022-07-13,2.0338837262527223
2022-07-14,2.034922877471398
2022-07-15,2.0168437781973743
2022-07-18,2.0210268184966713
2022-07-19,2.018622634178856
2022-07-20,2.016487368806885
2022-07-21,2.016383459341761
2022-07-22,2.016437611911624
2022-07-25,2.017335644425727
2022-07-26,2.012093814815061
2022-07-27,2.0097751016045016
2022-07-28,2.008314112246783
2022-07-29,2.008262033262455
2022-08-01,2.0078433486171177
2022-08-02,2.006526825773572
2022-08-03,2.0051108026538347
2022-08-04,2.007895745352647
2022-08-05,2.007811364617965
2022-08-08,2.0094268119728405
2022-08-09,2.009189875496177
2022-08-10,2.0070946645574437
2022-08-11,2.013147028946001
2022-08-12,2.009317903092807
2022-08-15,2.001276082320519
2022-08-16,1.999255089156633
2022-08-17,2.0050231026972316
2022-08-18,1.9993150221076517
2022-08-19,1.9975891052789563
2022-08-22,2.0061125599749685
2022-08-23,2.0043522933378024
2022-08-24,1.9959326683744516
2022-08-25,2.0066776339638523
2022-08-26,2.0042094044228977
2022-08-29,2.000346919047058
2022-08-30,1.9927976038122535
2022-08-31,1.9941536272119185
2022-09-01,1.9924028103178213
2022-09-02,1.9863929090869925
2022-09-05,1.993537678902657
2022-09-06,1.9969596715747893
2022-09-07,1.9913496600581282
2022-09-08,1.9930355410055027
2022-09-09,2.01346549132624
2022-09-13,2.0161315287314343
2022-09-14,2.0069111728641
2022-09-15,2.01328277454321
2022-09-16,1.982455512272254
2022-09-19,1.9896829396065396
2022-09-20,1.9793732899591152
2022-09-21,1.9729885694063887
2022-09-22,1.9692791424474123
2022-09-23,1.9681685315245603
2022-09-26,1.9633040368517867
2022-09-27,1.9672090650653722
2022-09-28,1.964774506405596
2022-09-29,1.9613066859063226
2022-09-30,1.960689379884764
2022-10-10,1.9514762913385029
2022-10-11,1.9503931829016392
2022-10-12,1.949353099358861
2022-10-13,1.9484234299856533
2022-10-14,1.9491079802776146
2022-10-17,1.9489330460575445
2022-10-18,1.9486032447196941
2022-10-19,1.9452612711130142
2022-10-20,1.9467158616436315
2022-10-21,1.948454101026717
2022-10-24,1.9447253547686305
2022-10-25,1.9397207124645306
2022-10-26,1.9432281692940587
2022-10-27,1.9433970668715632
2022-10-28,1.9416279795019227
2022-10-31,1.943747928857852
2022-11-01,1.947632735387027
2022-11-02,1.9512518113489692
2022-11-03,1.949550376881316
2022-11-04,1.954764137817053
2022-11-07,1.9583497211321785
2022-11-08,1.9539924890648381
2022-11-09,1.9504012254122445
2022-11-10,1.9421115932670279
2022-11-11,1.9508827586213402
2022-11-14,1.9475339459491678
2022-11-15,1.9605851939780845
2022-11-16,1.9501370220828522
2022-11-17,1.943211920025546
2022-11-18,1.9360944042862496
2022-11-21,1.9252867748222537
2022-11-22,1.9316103126101953
2022-11-23,1.9280546341063005
2022-11-24,1.9243367450793605
2022-11-25,1.937602119576646
2022-11-28,1.9149921714601568
2022-11-29,1.9530496567585145
2022-11-30,1.9475546721336237
2022-12-01,1.951148233315539
2022-12-02,1.9380139371200749
2022-12-05,1.9767409078712597
2022-12-06,1.9788584112407877
2022-12-07,1.969311689784329
2022-12-08,1.9702821723915647
2022-12-09,2.001528128648347
2022-12-12,1.973323116815937
2022-12-13,1.977331750122326
2022-12-14,1.9929968188566778
2022-12-15,1.980491606077094
2022-12-16,1.9875155550508516
2022-12-19,1.9635819905119571
2022-12-20,1.9349218465922404
2022-12-21,1.939119270257858
2022-12-22,1.942117239673334
2022-12-23,1.9430815552122502
2022-12-26,1.9367719344122414
2022-12-27,1.9418989200874528
2022-12-28,1.9399258528786498
2022-12-29,1.9366149491031122
2022-12-30,1.937075626089812
2023-01-03,1.9355430291607207
2023-01-04,1.9382219479565361
2023-01-05,1.942974519934255
2023-01-06,1.943872550538382
2023-01-09,1.9485872637056294
2023-01-10,1.9466690357261704
2023-01-11,1.9483686163464744
2023-01-12,1.94638300118881
2023-01-13,1.9654719885803655
2023-01-16,1.9854230689613037
2023-01-17,1.9784045495586509
2023-01-18,1.9691234665094217
2023-01-19,1.980848269720332
2023-01-20,1.98494967430035
2023-01-30,1.9840626637432566
2023-01-31,1.96803308142466
2023-02-01,1.9859884909704952
2023-02-02,1.9741953412343065
2023-02-03,1.958678968471164
2023-02-06,1.9428453782006219
2023-02-07,1.9427303770407742
2023-02-08,1.9394618928149598
2023-02-09,1.9456192675584
2023-02-10,1.939143746635807
2023-02-13,1.9430956527420722
2023-02-14,1.945720850757656
2023-02-15,1.9432765563501586
2023-02-16,1.9416183702404601
2023-02-17,1.938457805679715
2023-02-20,1.953329917590775
2023-02-21,1.9563416144168666
2023-02-22,1.9538150305894029
2023-02-23,1.9547964130752373
2023-02-24,1.946364102101167
2023-02-27,1.9425325687751767
2023-02-28,1.946698093919924
2023-03-01,1.9587358175512064
2023-03-02,1.9623188497277742
2023-03-03,1.9706091273582669
2023-03-06,1.9635170671228677
2023-03-07,1.9594001930178009
2023-03-08,1.9585595601837764
2023-03-09,1.9572068419166895
2023-03-10,1.9494450546318265
2023-03-13,1.965892726567471
2023-03-14,1.9621242761527455
2023-03-15,1.967527407776914
2023-03-16,1.9615857384157176
2023-03-17,1.9710176999520665
2023-03-20,1.9689190326385289
2023-03-21,1.9671416106985173
2023-03-22,1.9706148277346178
2023-03-23,1.9746530372602753
2023-03-24,1.9685750775199713
2023-03-27,1.9570711586884921
2023-03-28,1.9529040267891848
2023-03-29,1.9557618423874976
2023-03-30,1.954892979417621
2023-03-31,1.9564578410593998
2023-04-03,1.9553362931650902
2023-04-04,1.9647265002554182
2023-04-06,1.969938986822106
2023-04-07,1.9763885918817157
2023-04-10,1.979351817277836
2023-04-11,1.9816678052771601
2023-04-12,1.9906182598701696
2023-04-13,1.9770665089558932
2023-04-14,1.9829331096088005
2023-04-17,1.9948296583045375
2023-04-18,1.9975827560291313
2023-04-19,1.9842949011768176
2023-04-20,1.984097548251743
2023-04-21,1.9619566986538501
2023-04-24,1.9573008634442148
2023-04-25,1.957283411369509
2023-04-26,1.9521082080844447
2023-04-27,1.9603058417029742
2023-04-28,1.9610790265199234
2023-05-04,1.9608822238490526
2023-05-05,1.955935542948853
2023-05-08,1.97343330222003
2023-05-09,1.967717903657398
2023-05-10,1.9534365704078287
2023-05-11,1.9516902194806323
2023-05-12,1.9456625747236376
2023-05-15,1.9531726165923682
2023-05-16,1.9516582868686232
2023-05-17,1.9472788014625635
2023-05-18,1.9483203491999068
2023-05-19,1.9421365009260603
2023-05-22,1.945106037070424
2023-05-23,1.9395035206087323
2023-05-24,1.9356907372429872
2023-05-25,1.933233099055035
2023-05-26,1.932177308169637
2023-05-29,1.9320318060823745
2023-05-30,1.9312640505150085
2023-05-31,1.929927252345589
2023-06-01,1.929675692783723
2023-06-02,1.929785483443897
2023-06-05,1.928545014868843
2023-06-06,1.923087693553899
2023-06-07,1.923037085983016
2023-06-08,1.9247957546199963
2023-06-09,1.9243138318857214
2023-06-12,1.9251317315757361
2023-06-13,1.9239634002893373
2023-06-14,1.9272186617548372
2023-06-15,1.932299826954696
2023-06-16,1.9362807246420886
2023-06-19,1.925849377497819
2023-06-20,1.9289818350710142
2023-06-21,1.9227864729484767
2023-06-26,1.9178075786343696
2023-06-27,1.9259315435306936
2023-06-28,1.924417426648288
2023-06-29,1.9208189565400262
2023-06-30,1.9220899164967693
2023-07-03,1.9285150007454173
2023-07-04,1.9322692720763408
2023-07-05,1.9307416333090657
2023-07-06,1.9277946391830159
2023-07-07,1.9262497912951673
2023-07-10,1.9257994756489711
2023-07-11,1.9311110598835648
2023-07-12,1.9301736389674142
2023-07-13,1.937117878207105
2023-07-14,1.9357173377948003
2023-07-17,1.9259904165308326
2023-07-18,1.9264489860677005
2023-07-19,1.9265801087313816
2023-07-20,1.9217744924595377
2023-07-21,1.9231494060538223
2023-07-24,1.9179991136187446
2023-07-25,1.93063599033005
2023-07-26,1.9306645416813817
2023-07-27,1.9323316506257897
2023-07-28,1.973204980075169
2023-07-31,1.9846951969737192
2023-08-01,1.970553714953239
2023-08-02,1.962277247694036
2023-08-03,1.975088662582392
2023-08-04,1.979561835380268
2023-08-07,1.966889931177539
2023-08-08,1.9581506060192946
2023-08-09,1.9566516275488162
2023-08-10,1.9563661375397015
2023-08-11,1.9244798211475878
2023-08-14,1.9192974242582388
2023-08-15,1.9180925152842971
2023-08-16,1.9184868015112462
2023-08-17,1.9190077700420747
2023-08-18,1.9185639047561258
2023-08-21,1.9146090545295682
2023-08-22,1.9149666680804378
2023-08-23,1.914064886414635
2023-08-24,1.91359188629195
2023-08-25,1.9146241577355394
2023-08-28,1.9145201542136587
2023-08-29,1.9139487081075637
2023-08-30,1.913853274182057
2023-08-31,1.9113547796238133
2023-09-01,1.913213047149271
2023-09-04,1.918312431463612
2023-09-05,1.9148843890383735
2023-09-06,1.9142046247205646
2023-09-07,1.9125175800903682
2023-09-08,1.9099627448298564
2023-09-11,1.9102517331754243
2023-09-12,1.9085608950586785
2023-09-13,1.9079881633202473
2023-09-14,1.9114972264636512
2023-09-15,1.9109213958140214
2023-09-18,1.9129515226145544
2023-09-19,1.912935317924354
2023-09-20,1.911089664953758
2023-09-21,1.9063867311562521
2023-09-22,1.9085286710167235
2023-09-25,1.9072757180221072
2023-09-26,1.905381243335029
2023-09-27,1.904401195338347
2023-09-28,1.9038159263315826
2023-10-09,1.9052956132626186
2023-10-10,1.9046110539258325
2023-10-11,1.9069553632634275
2023-10-12,1.9078266320156039
2023-10-13,1.908297520163253
2023-10-16,1.9045582025201186
2023-10-17,1.9065487456271892
2023-10-18,1.9067678706333029
2023-10-19,1.8996156407358114
2023-10-20,1.8966802494662591
2023-10-23,1.8996528000887585
2023-10-24,1.8985545995358009
2023-10-25,1.8991402659361072
2023-10-26,1.8982160229783498
2023-10-27,1.901177876062296
2023-10-30,1.909562105521937
2023-10-31,1.90839173607254
2023-11-01,1.9053092084028305
2023-11-02,1.9015638945177742
2023-11-03,1.9042067107249154
2023-11-06,1.911346024896435
2023-11-07,1.9089003141763057
2023-11-08,1.908138600998737
2023-11-09,1.9042107959076906
2023-11-10,1.9022341462707633
2023-11-13,1.8970329004634512
2023-11-14,1.896987688779547
2023-11-15,1.8999870281934308
2023-11-16,1.8946739013309115
2023-11-17,1.8934006470957758
2023-11-20,1.8904540470459954
2023-11-21,1.8909575826830518
2023-11-22,1.8892949938988681
2023-11-23,1.889134413053306
2023-11-24,1.8900676112932626
2023-11-27,1.8899581089806272
2023-11-28,1.890469637065712
2023-11-29,1.891007879771287
2023-11-30,1.8936025841831388
2023-12-01,1.8918171401817934
2023-12-04,1.8941341485954706
2023-12-05,1.8880204742371676
2023-12-06,1.8881150679798682
2023-12-07,1.8868971084575998
2023-12-08,1.888334839622908
2023-12-11,1.8900098387925819
2023-12-12,1.8899940589012172
2023-12-13,1.8887647032181856
2023-12-14,1.887974472179507
2023-12-15,1.8868663010264308
2023-12-18,1.8881472841622247
2023-12-19,1.8874546711329439
2023-12-20,1.8829491924510877
2023-12-21,1.8824396842759858
2023-12-22,1.8818365396115344
2023-12-25,1.883059571016359
2023-12-26,1.8825341720486668
2023-12-27,1.8830015461750367
2023-12-28,1.8831796843656032
2023-12-29,1.8926749150488882
2024-01-02,1.8855707568575653
2024-01-03,1.885588114130841
2024-01-04,1.8843498957062597
2024-01-05,1.8820082161778942
2024-01-08,1.8750794219410991
2024-01-09,1.8798312301441205
2024-01-10,1.8777815394812436
2024-01-11,1.8747929864362851
2024-01-12,1.8773539960843328
2024-01-15,1.8799857667136024
2024-01-16,1.885908581542982
2024-01-17,1.8763586836350448
2024-01-18,1.8835663790374186
2024-01-19,1.880616443199941
2024-01-22,1.8775994635705602
2024-01-23,1.8772068953354182
2024-01-24,1.8817170446747036
2024-01-25,1.8916863142292792
2024-01-26,1.8976172411113916
2024-01-29,1.9012646125194117
2024-01-30,1.8921989941087483
2024-01-31,1.8928815144298567
2024-02-01,1.8881851957375624
2024-02-02,1.8873476846554234
2024-02-05,1.9010661423426298
2024-02-06,1.9120753491159257
2024-02-07,1.9237813078125157
2024-02-08,1.9214665575098098
2024-02-19,1.93343649847313
2024-02-20,1.9387034059814858
2024-02-21,1.9583119190602847
2024-02-22,1.9653523050052362
2024-02-23,1.9628384307943878
2024-02-26,1.943147053647677
2024-02-27,1.949986668096782
2024-02-28,1.9345016957937278
2024-02-29,1.9542798770753107
2024-03-01,1.9599770719411813
2024-03-04,1.9580260047428466
2024-03-05,1.9759664549168636
2024-03-06,1.9681032053081753
2024-03-07,1.9648021609239552
2024-03-08,1.9630286388228395
2024-03-11,1.9761505696708714
2024-03-12,1.9695358385610813
2024-03-13,1.960801109808352
2024-03-14,1.9639328049967946
2024-03-15,1.9609723199297884
2024-03-18,1.972582165934462
2024-03-19,1.967473450883601
2024-03-20,1.966918137773693
2024-03-21,1.967060780463268
2024-03-22,1.958407743439916
2024-03-25,1.9531054316088614
2024-03-26,1.9584372177074953
2024-03-27,1.9496357219201412
2024-03-28,1.9509242704572374
2024-03-29,1.954793224164153
2024-04-01,1.9665212603891056
2024-04-02,1.962150970078443
2024-04-03,1.9638574136562013
2024-04-08,1.957747313304554
2024-04-09,1.9555098988468347
2024-04-10,1.9590199487657565
2024-04-11,1.9613595449082515
2024-04-12,1.957156009218192
2024-04-15,1.9668292823788618
2024-04-16,1.9687293483063273
2024-04-17,1.9762626399544876
2024-04-18,1.9778275468989939
2024-04-19,1.9801796641390152
2024-04-22,1.9668847153084619
2024-04-23,1.9571918568346374
2024-04-24,1.9580069897862946
2024-04-25,1.9665479000785098
2024-04-26,1.9689149160978812
2024-04-29,1.9712743929099585
2024-04-30,1.9715752792906909
2024-05-06,1.9931021747538287
2024-05-07,1.992761455783254
2024-05-08,1.97877351113495
2024-05-09,1.9927613057072828
2024-05-10,1.997007035519779
2024-05-13,1.9979796225527204
2024-05-14,1.9977242744171146
2024-05-15,1.988436948531639
2024-05-16,1.9993560079579078
2024-05-17,2.017719147667794
2024-05-20,2.0163719157117073
2024-05-21,2.012419003428819
2024-05-22,2.012979698275417
2024-05-23,1.999157583973008
2024-05-24,1.9824971384397068
2024-05-27,1.986646226678496
2024-05-28,1.9793323151439248
2024-05-29,1.981620033388821
2024-05-30,1.9769923183286084
2024-05-31,1.9705808218801135
2024-06-03,1.9747240632851348
2024-06-04,1.9759442048240552
2024-06-05,1.976737379079814
2024-06-06,1.9783463626010809
2024-06-07,1.9765671033882357
2024-06-11,1.97634386149221
2024-06-12,1.9790874009082302
2024-06-13,1.9808399584477823
2024-06-14,1.9807261886682275
2024-06-17,1.9845325675973888
2024-06-18,1.9859006761347346
2024-06-19,1.9853123408203346
2024-06-20,1.9858085496360145
2024-06-21,1.9859118905286424
2024-06-24,1.986890273327256
2024-06-25,1.984446054861789
2024-06-26,1.9857470312088952
2024-06-27,1.9866825025022468
2024-06-28,1.9886912159630439
2024-07-01,1.992570391215023
2024-07-02,1.9947130873448822
2024-07-03,1.9912735231802656
2024-07-04,1.9931936066061227
2024-07-05,1.9882977809515987
2024-07-08,1.9928692937821186
2024-07-09,1.9996908715958346
2024-07-10,1.9931263677385558
2024-07-11,1.9984215583090572
2024-07-12,1.998083184731329
2024-07-15,2.001983311949252
2024-07-16,2.006709350112804
2024-07-17,2.006404902932655
2024-07-18,2.0074206942144626
2024-07-19,2.0111914424859836
2024-07-22,2.0014244683703413
2024-07-23,1.9776573823549621
2024-07-24,1.9717198149135897
2024-07-25,1.9713668317312587
2024-07-26,1.9658812249426998
2024-07-29,1.9601818700960119
2024-07-30,1.9565655376638518
2024-07-31,1.961641412452905
2024-08-01,1.9658379312011425
2024-08-02,1.9622040902610738
2024-08-05,1.958458104670463
2024-08-06,1.9557017434380535
2024-08-07,1.9553883431267294
2024-08-08,1.9545492992543496
2024-08-09,1.9519137940914533
2024-08-12,1.9532570438986436
2024-08-13,1.9524428498362745
2024-08-14,1.9521131086589412
2024-08-15,1.9561347466596
2024-08-16,1.9549369084216814
2024-08-19,1.9541945551494844
2024-08-20,1.9530455222882144
2024-08-21,1.9520927682574565
2024-08-22,1.9526601608339105
2024-08-23,1.9545844589717103
2024-08-26,1.952842234518236
2024-08-27,1.9523445154570733
2024-08-28,1.9465915605215711
2024-08-29,1.93774612355652
2024-08-30,1.9373131995211992
2024-09-02,1.9282111339510866
2024-09-03,1.9314428163079813
2024-09-04,1.9285223875695696
2024-09-05,1.9281455341948368
2024-09-06,1.9215580517258082
2024-09-09,1.9136627652703673
2024-09-10,1.9123866491991246
2024-09-11,1.9186211420653276
2024-09-12,1.9169647141203174
2024-09-13,1.9139952420950295
2024-09-18,1.9176482077058237
2024-09-19,1.9200354716832897
2024-09-20,1.91786053481928
2024-09-23,1.9184478676364503
2024-09-24,1.9283799317715342
2024-09-25,1.9428195941687956
2024-09-26,1.9949003375041752
2024-09-27,2.086737285079623
2024-09-30,2.2542846346448435
2024-10-08,2.3619264318076425
2024-10-09,2.1821542337706377
2024-10-10,2.2210841271368937
2024-10-11,2.1658988265468935
2024-10-14,2.2075758950267295
2024-10-15,2.1496432339206497
2024-10-16,2.130597775802388
2024-10-17,2.086494326341772
2024-10-18,2.1500208207376166
2024-10-21,2.1597910176005235
2024-10-22,2.181194170324638
2024-10-23,2.195839019391793
2024-10-24,2.17006970806102
2024-10-25,2.1890482083999308
2024-10-28,2.196316220699391
2024-10-29,2.179409953355292
2024-10-30,2.1707460455978245
2024-10-31,2.1799709591992533
2024-11-01,2.1801689806614037
2024-11-04,2.1951431817615736
2024-11-05,2.221467451208059
2024-11-06,2.2142527392318327
2024-11-07,2.2553117822326314
2024-11-08,2.23710252201624
2024-11-11,2.2366372557307046
2024-11-12,2.2263026747875254
2024-11-13,2.2256537495330955
2024-11-14,2.2043150772267963
2024-11-15,2.183004876951895
2024-11-18,2.17299686509752
2024-11-19,2.1752206997928143
2024-11-20,2.175259225237223
2024-11-21,2.1765847594477306
2024-11-22,2.1675735812339783
2024-11-25,2.1677206065381487
2024-11-26,2.166915408016451
2024-11-27,2.167326585041156
2024-11-28,2.1672243090706393
2024-11-29,2.166814490258556
2024-12-02,2.166608138269739
2024-12-03,2.1674348510310133
2024-12-04,2.16777323556747
2024-12-05,2.1663414348982046
2024-12-06,2.1675109325114565
2024-12-09,2.1688132684139356
2024-12-10,2.168637280377189
2024-12-11,2.1681323134044024
2024-12-12,2.1713269590130153
2024-12-13,2.160171346424961
2024-12-16,2.165476508633331
2024-12-17,2.165496403686131
2024-12-18,2.1696797105152843
2024-12-19,2.165457277727476
2024-12-20,2.160939409292779
2024-12-23,2.169218472052531
2024-12-24,2.1771121994558786
2024-12-25,2.179275196113452
2024-12-26,2.177765180969321
2024-12-27,2.176452973347967
2024-12-30,2.1799911966530394
2024-12-31,2.1741583950456684
2025-01-02,2.162391872081518
2025-01-03,2.1595002234137572
2025-01-06,2.161776333018332
2025-01-07,2.162638131587612
2025-01-08,2.1682425139557813
2025-01-09,2.1685339952994416
2025-01-10,2.1646258033915333
2025-01-13,2.159182114105461
2025-01-14,2.161633945725939
2025-01-15,2.161315431926028
2025-01-16,2.1644615418554487
2025-01-17,2.163482011554163
2025-01-20,2.162149753482887
2025-01-21,2.16228539261402
2025-01-22,2.1595699020312176
2025-01-23,2.1610145491202633
2025-01-24,2.1625261389647417
2025-01-27,2.164182021772744
2025-02-05,2.1605161018478922
2025-02-06,2.162051997571937
2025-02-07,2.1671768776294495
2025-02-10,2.1702408686621104
2025-02-11,2.168855815542546
2025-02-12,2.1830449513977968
2025-02-13,2.1786445820141123
2025-02-14,2.190175892444404
2025-02-17,2.188017877346104
2025-02-18,2.183160419403623
2025-02-19,2.1960349445984764
2025-02-20,2.192181199160338
2025-02-21,2.2049164217522255
2025-02-24,2.200466205733044
2025-02-25,2.1862199465342504
2025-02-26,2.1948696784077315
2025-02-27,2.2018087890960345
2025-02-28,2.1779047568429277
2025-03-03,2.1776520264172268
2025-03-04,2.174314511760105
2025-03-05,2.178513585008366
2025-03-06,2.1866795568379973
2025-03-07,2.1883089587233244
2025-03-10,2.18476670122288
2025-03-11,2.191054911181155
2025-03-12,2.18450102881842
2025-03-13,2.183762053885833
2025-03-14,2.2057052518100058
2025-03-17,2.208393579335338
2025-03-18,2.2062108533688063
2025-03-19,2.2108603905173316
2025-03-20,2.1960177618012953
2025-03-21,2.1791257339663055
2025-03-24,2.1864022441662594
2025-03-25,2.1855623747753476
2025-03-26,2.1846216317479312
2025-03-27,2.1866657840531327
2025-03-28,2.18202076686054
2025-03-31,2.178296003604231
2025-04-01,2.17682282895483
2025-04-02,2.173834570155718
2025-04-03,2.175669355837934
2025-04-07,2.1590762577796823
2025-04-08,2.1677270921765865
2025-04-09,2.1697014013014555
2025-04-10,2.1716276221378
2025-04-11,2.1640609440766068
2025-04-14,2.1638719673464943
2025-04-15,2.1607793729269744
2025-04-16,2.1682797552103183
2025-04-17,2.168588010955256
2025-04-18,2.166144669751896
2025-04-21,2.1626379013438584
2025-04-22,2.162418044542823
2025-04-23,2.1557890015612045
2025-04-24,2.1580609226446823
2025-04-25,2.1551675907915526
2025-04-28,2.1520132792736364
2025-04-29,2.15082512730079
2025-04-30,2.147042472190609
2025-05-06,2.1460373425410344
2025-05-07,2.1455788943134713
2025-05-08,2.144227509535945
2025-05-09,2.1463070811861056
2025-05-12,2.159255861388999
2025-05-13,2.1625927509555933
2025-05-14,2.1738420148614384
2025-05-15,2.1607897600288695
2025-05-16,2.1515881400058006
2025-05-19,2.146609296748948
2025-05-20,2.1562810040748412
2025-05-21,2.163007182361567
2025-05-22,2.164750452578257
2025-05-23,2.1508815548696267
2025-05-26,2.1404056396666844
2025-05-27,2.1339789217906358
2025-05-28,2.138892244738106
2025-05-29,2.13579660495775
2025-05-30,2.1326634820026236
2025-06-03,2.13666933177252
2025-06-04,2.13600588112746
2025-06-05,2.133114080202427
2025-06-06,2.1321009081698055
2025-06-09,2.138857019654809
2025-06-10,2.1384607839029615
2025-06-11,2.144282440950617
2025-06-12,2.146157238601169
2025-06-13,2.143298767037414
2025-06-16,2.14255891091444
2025-06-17,2.140989835743044
2025-06-18,2.1383268619698197
2025-06-19,2.1334953832152026
2025-06-20,2.1359297208915105
2025-06-23,2.1376946775493053
2025-06-24,2.1419145070253522
2025-06-25,2.1490003877147816
2025-06-26,2.145401122728368
2025-06-27,2.139113344830944
2025-06-30,2.1410029881883843
2025-07-01,2.140805615061315
2025-07-02,2.151261165437897
2025-07-03,2.1565393633891405
2025-07-04,2.1624066499303707
2025-07-07,2.1567529277907185
2025-07-08,2.1723139829031175
2025-07-09,2.167962179356755
2025-07-10,2.1801237032114558
2025-07-11,2.17875400007633
2025-07-14,2.178779436403673
2025-07-15,2.1747813357732544
2025-07-16,2.171449566571847
2025-07-17,2.181144495373489
2025-07-18,2.187587601179775
2025-07-21,2.201104221610465
2025-07-22,2.232434080618472
2025-07-23,2.2241347989371367
2025-07-24,2.2400851206955847
2025-07-25,2.21652532011613
2025-07-28,2.2123973062260913
2025-07-29,2.2131912781826424
2025-07-30,2.2202014371830536
2025-07-31,2.1794798424928516
2025-08-01,2.1721241989154394
2025-08-04,2.1696206493749965
2025-08-05,2.17321439829375
2025-08-06,2.1723375329798333
2025-08-07,2.170754304802418
2025-08-08,2.1695114573075385
2025-08-11,2.1712538516114557
2025-08-12,2.1763907872700345
2025-08-13,2.1835805675668425
2025-08-14,2.1806139809391554
2025-08-15,2.1937589933236668
2025-08-18,2.202729499215071
2025-08-19,2.188542231309699
2025-08-20,2.1984062527294603
2025-08-21,2.2042907382996586
2025-08-22,2.217174790983975
2025-08-25,2.238018702092503
2025-08-26,2.249320565858334
2025-08-27,2.2165151801244263
2025-08-28,2.2249973682160697
2025-08-29,2.2333502873404383
2025-09-01,2.2387201867236364
2025-09-02,2.2287351520918177
2025-09-03,2.215743108478548
2025-09-04,2.2014066580725427
2025-09-05,2.2322467135898942
2025-09-08,2.2434100358152818
2025-09-09,2.237668284466816
2025-09-10,2.2278730994347336
2025-09-11,2.241595673671989
2025-09-12,2.233743237893458
2025-09-15,2.239338740275507
2025-09-16,2.236662511938474
2025-09-17,2.2414096765570903
2025-09-18,2.2287040968258514
2025-09-19,2.231487825672402
2025-09-22,2.2352837882554315
2025-09-23,2.237213810404503
2025-09-24,2.2456733192552107
2025-09-25,2.251950189061706
2025-09-26,2.2451681306791595
2025-09-29,2.252558031961568
2025-09-30,2.2589498894325932
2025-10-09,2.269510374414153
2025-10-10,2.251009289840113
2025-10-13,2.2458587665246452
2025-10-14,2.241852466060392
2025-10-15,2.24850491620513
2025-10-16,2.2512452070707303
2025-10-17,2.2405311357451887
2025-10-20,2.2353622168465903
2025-10-21,2.238104983280786
2025-10-22,2.2383833883169055
2025-10-23,2.2408201359272986
2025-10-24,2.238307342568627
2025-10-27,2.244099354211208
2025-10-28,2.2364304593958777
2025-10-29,2.2465025537300254
2025-10-30,2.250932499355621
2025-10-31,2.2409868936840507
2025-11-03,2.2460926654017976
2025-11-04,2.2400554215467348
2025-11-05,2.2425440365087614
2025-11-06,2.2434213830432967
2025-11-07,2.251321064685427
2025-11-10,2.2676000752117913
2025-11-11,2.2682779106438185
2025-11-12,2.2638071590171065
2025-11-13,2.269503399738493
2025-11-14,2.264002180039772
2025-11-17,2.2544682655997774
2025-11-18,2.2483301035488843
2025-11-19,2.253287731146064
2025-11-20,2.2447713311301576
2025-11-21,2.2383689648526945
2025-11-24,2.232959316781119
2025-11-25,2.2338879294438336
2025-11-26,2.2330110969827124
2025-11-27,2.233407411625771
2025-11-28,2.233822195029698
2025-12-01,2.2344591945912033
2025-12-02,2.2373789250545704
2025-12-03,2.2372147201284367
2025-12-04,2.2361967289900972
2025-12-05,2.236280744947877
2025-12-08,2.236280291648124
2025-12-09,2.2304433670742325
2025-12-10,2.2283953569087247
2025-12-11,2.226680788191176
2025-12-12,2.2296423748216645
2025-12-15,2.230623087602523
2025-12-16,2.2280138146678077
2025-12-17,2.231474326105119
2025-12-18,2.2303268475133833
2025-12-19,2.233135258077264
2025-12-22,2.2341997612341875
2025-12-23,2.231637696146138
2025-12-24,2.2321777083068572
2025-12-25,2.2327182439583146
2025-12-26,2.2398996417491293
2025-12-29,2.2356244729783197
2025-12-30,2.2323500637298577
2025-12-31,2.233783732763067
2026-01-05,2.2374000802892007
2026-01-06,2.2533063401912523
2026-01-07,2.242037020797301
2026-01-08,2.2322642823589556
2026-01-09,2.238770171101053
2026-01-12,2.2428579248362075
2026-01-13,2.232885106815638
2026-01-14,2.2292113993184923
2026-01-15,2.2257213404484424
2026-01-16,2.2180813211737673
2026-01-19,2.2131846980268115
2026-01-20,2.2208654380585737
2026-01-21,2.2216103317329536
2026-01-22,2.2217432302802576
2026-01-23,2.2195474366372805
2026-01-26,2.213718971865648
2026-01-27,2.2117945085774524
2026-01-28,2.2168574865440527
2026-01-29,2.2224541120482666
2026-01-30,2.2084160730094804
2026-02-02,2.20085336017705
2026-02-03,2.2062840963579315
2026-02-04,2.2164551003171415
2026-02-05,2.217680349102216
2026-02-06,2.2136486270253286
2026-02-09,2.2143996316048202
2026-02-10,2.2107827054152067
2026-02-11,2.2122323070424073
2026-02-12,2.207619457660099
2026-02-13,2.196603384951251
2026-02-24,2.1963583763102994
2026-02-25,2.2007496243051854
2026-02-26,2.1902612378325075
2026-02-27,2.189717090817199
2026-03-02,2.1995285626287093
2026-03-03,2.2038841156418867
2026-03-04,2.2014501763985628
2026-03-05,2.196626719753886
2026-03-06,2.1961480903444963
2026-03-09,2.200724243017483
2026-03-10,2.192898227196669
2026-03-11,2.1975765377086174
2026-03-12,2.2005739507048503
2026-03-13,2.1983827288926294
2026-03-16,2.2021913824131416
2026-03-17,2.2008168380586244
2026-03-18,2.197958317078149
2026-03-19,2.199253408827983
2026-03-20,2.2012125887809435
2026-03-23,2.187261331984771
2026-03-24,2.1850444757925165
2026-03-25,2.18426564913691
2026-03-26,2.1832478578574257
2026-03-27,2.1867099492815125
2026-03-30,2.186312021776337
2026-03-31,2.184745934379671
2026-04-01,2.1843481318860842
2026-04-02,2.1830777259342606
2026-04-03,2.1780976388817863
2026-04-07,2.1770059378111286
2026-04-08,2.1779366273594993
2026-04-09,2.1801016563132998
2026-04-10,2.1830326830130855
2026-04-13,2.1811655114758355
2026-04-14,2.184979575853582
2026-04-15,2.1864956638376185
2026-04-16,2.1912770641842654
2026-04-17,2.1858247772240973
2026-04-20,2.1934115444424163
2026-04-21,2.1948803282953486
2026-04-22,2.195329026956254
2026-04-23,2.1937929145332458
2026-04-24,2.190542473622989
2026-04-27,2.193361443513359
2026-04-28,2.191378910782928
2026-04-29,2.195417012512307
2026-04-30,2.1944739926031263
2026-05-06,2.202387234870806
2026-05-07,2.2005214619417766
2026-05-08,2.198203240408884
2026-05-11,2.2109382569304197
2026-05-12,2.2055058362635167
2026-05-13,2.2048232046854954
2026-05-14,2.187009785068506
2026-05-15,2.183786608261222
2026-05-18,2.175670529602772
2026-05-19,2.1761762664427717
2026-05-20,2.173201817141766
2026-05-21,2.171532548729141
2026-05-22,2.1715203345280645
2026-05-25,2.173683583724822
2026-05-26,2.1721737502645824
2026-05-27,2.1715744095443617
2026-05-28,2.169905143050057
2026-05-29,2.1658671867550154
2026-06-01,2.1656622413215443
2026-06-02,2.1656419088261853
2026-06-03,2.1653997616146654
2026-06-04,2.1640017206256075
2026-06-05,2.164902469238535
2026-06-08,2.1670068068499146
2026-06-09,2.1652232453713225
2026-06-10,2.1666954495377606
2026-06-11,2.167089845337019
2026-06-12,2.1677104765143116
2026-06-15,2.1624777286967896
2026-06-16,2.160240492031423
2026-06-17,2.158791180448406
2026-06-18,2.1522622193537178
2026-06-22,2.1565801760302126
2026-06-23,2.1532570369921222
2026-06-24,2.155247713737595
2026-06-25,2.1607676414364256
2026-06-26,2.1536474808450787
2026-06-29,2.1546349426547717
2026-06-30,2.157059768565262
2026-07-01,2.1630502919978833
2026-07-02,2.158247257601129
2026-07-03,2.1621443653786745
2026-07-06,2.166997633292912
2026-07-07,2.1583601159087125
2026-07-08,2.15358451991428
2026-07-09,2.15962753220661
2026-07-10,2.157337815751497
2026-07-13,2.1553374964908896
2026-07-14,2.1576078949932516
2026-07-15,2.1716910072212814
2026-07-16,2.171384004181971
2026-07-17,2.158997880254886
2026-07-20,2.1828715994885797
2026-07-21,2.1679620218637288
2026-07-22,2.186815605603638
2026-07-23,2.183233518612019
2026-07-24,2.1643225898171665
2026-07-27,2.162149456850998
2026-07-28,2.180805509851508
2026-07-29,2.1983972236664706
2026-07-30,2.238227630551127
2026-07-31,2.2253104312685807
2026-08-03,2.21714596485846
2026-08-04,2.179808646069805
2026-08-05,2.17520855294107
2026-08-06,2.164065778321714
2026-08-07,2.166267436526055
2026-08-10,2.1757281882813944
2026-08-11,2.1601792606941186
2026-08-12,2.1683201206758156
2026-08-13,2.161475361956519
2026-08-14,2.15383069857804
2026-08-17,2.151490604924593
2026-08-18,2.1509529363298157
2026-08-19,2.146202081332339
2026-08-20,2.148360842225313
2026-08-21,2.146040858356303
2026-08-24,2.1462424421005273
2026-08-25,2.145489247155079
2026-08-26,2.1465471206811304
2026-08-27,2.14660821683899
2026-08-28,2.1494914246007535
2026-08-31,2.150328506667644
2026-09-01,2.153588440225444
2026-09-02,2.147125076997887
2026-09-03,2.148548789141973
2026-09-04,2.1548603738318537
2026-09-07,2.143217030002139
2026-09-08,2.142900215445489
2026-09-09,2.142749701531802
2026-09-10,2.14187404196523
2026-09-11,2.138288396242425
2026-09-14,2.1390143921035873
2026-09-15,2.134049785602337
2026-09-16,2.131901075729095
2026-09-17,2.1316139930631346
2026-09-18,2.1310750378173493
2026-09-21,2.135144108584544
2026-09-22,2.135213321675392
2026-09-23,2.134609449105102
