date,equity
2018-10-16,1.0
2018-10-17,1.0
2018-10-18,1.0
2018-10-19,1.0
2018-10-22,1.0
2018-10-23,1.0
2018-10-24,1.0
2018-10-25,1.0
2018-10-26,1.0
2018-10-29,1.0
2018-10-30,1.0
2018-10-31,1.0
2018-11-01,1.0
2018-11-02,1.0
2018-11-05,1.0
2018-11-06,1.0
2018-11-07,1.0
2018-11-08,1.0
2018-11-09,1.0
2018-11-12,1.0
2018-11-13,0.9999736842105263
2018-11-14,0.9997513653755901
2018-11-15,1.000366812454008
2018-11-16,1.002957342006386
2018-11-19,1.0044825308012748
2018-11-20,0.9970726266678686
2018-11-21,0.99714667285226
2018-11-22,0.9970552764035872
2018-11-23,0.989412818273183
2018-11-26,0.9902193945839655
2018-11-27,0.9912193063478045
2018-11-28,0.9939436349263522
2018-11-29,0.9915724008554718
2018-11-30,0.991682970214171
2018-12-03,0.9973837253870874
2018-12-04,0.9974592541288853
2018-12-05,1.0041319274162082
2018-12-06,0.9906957644906006
2018-12-07,0.9897191276427207
2018-12-10,0.986528306798827
2018-12-11,0.986468641123375
2018-12-12,0.9879780746583895
2018-12-13,0.9941825565439373
2018-12-14,0.9865523799560822
2018-12-17,0.9846836670865073
2018-12-18,0.983561792603313
2018-12-19,0.9808250301482313
2018-12-20,0.9780325393232423
2018-12-21,0.9778232251943413
2018-12-24,0.9778596096219564
2018-12-25,0.9774049386366896
2018-12-26,0.9778800286533565
2018-12-27,0.9779569415521792
2018-12-28,0.978178209886359
2019-01-02,0.976784654632562
2019-01-03,0.9769773214231644
2019-01-04,0.9766576732309046
2019-01-07,0.9765283132669056
2019-01-08,0.9765867626374412
2019-01-09,0.9760548509798623
2019-01-10,0.9749837526356805
2019-01-11,0.9750661500144716
2019-01-14,0.9744043783107686
2019-01-15,0.9770698281197521
2019-01-16,0.9769754502280956
2019-01-17,0.9753369140281792
2019-01-18,0.9854991559627931
2019-01-21,0.9864037235634048
2019-01-22,0.9771159108886927
2019-01-23,0.9802461479488418
2019-01-24,0.9870481588078615
2019-01-25,0.991421337602276
2019-01-28,0.9923429298191727
2019-01-29,0.9981108347612258
2019-01-30,0.9937061747271396
2019-01-31,1.005205766138986
2019-02-01,1.0137926405363036
2019-02-11,1.0281665748820619
2019-02-12,1.0322865799913175
2019-02-13,1.0445018237170485
2019-02-14,1.0512742172608094
2019-02-15,1.0344122509477442
2019-02-18,1.0653932419771799
2019-02-19,1.062982658976857
2019-02-20,1.071242618142881
2019-02-21,1.0736685065530962
2019-02-22,1.093722146820535
2019-02-25,1.1346274357083224
2019-02-26,1.1232693785406263
2019-02-27,1.1112919280350493
2019-02-28,1.1188843326204816
2019-03-01,1.144343399815187
2019-03-04,1.1590290862207735
2019-03-05,1.1649885800236608
2019-03-06,1.165249692947751
2019-03-07,1.1420011506778172
2019-03-08,1.1141516081379168
2019-03-11,1.1290833490454537
2019-03-12,1.1336660361594717
2019-03-13,1.122455803276415
2019-03-14,1.1227214468930096
2019-03-15,1.134669716894267
2019-03-18,1.1553017177088087
2019-03-19,1.1499721232660256
2019-03-20,1.1456532822639365
2019-03-21,1.1423989312924288
2019-03-22,1.143675459973763
2019-03-25,1.128239199717245
2019-03-26,1.1266137578376423
2019-03-27,1.136497067481668
2019-03-28,1.140619346917279
2019-03-29,1.1593318977652658
2019-04-01,1.1730419593353107
2019-04-02,1.1689052489051093
2019-04-03,1.174763008254203
2019-04-04,1.1810441709621269
2019-04-08,1.1779241746846343
2019-04-09,1.1849870432096299
2019-04-10,1.1934361662763382
2019-04-11,1.1697210577359496
2019-04-12,1.1661730861752944
2019-04-15,1.1667602782822362
2019-04-16,1.1852928362679354
2019-04-17,1.1936505913251847
2019-04-18,1.192269187608995
2019-04-19,1.201500164265817
2019-04-22,1.1865193834543941
2019-04-23,1.1865710402882301
2019-04-24,1.1897781646563823
2019-04-25,1.180951388859363
2019-04-26,1.1692795712108366
2019-04-29,1.175518417996308
2019-04-30,1.1739464098229855
2019-05-06,1.1559478466088862
2019-05-07,1.160773611110518
2019-05-08,1.15905017928889
2019-05-09,1.1577274067990198
2019-05-10,1.1625183569253938
2019-05-13,1.1616876627042962
2019-05-14,1.1612709142333484
2019-05-15,1.1642386933858653
2019-05-16,1.1642447169860484
2019-05-17,1.1591121102393356
2019-05-20,1.155313947803601
2019-05-21,1.156418079014294
2019-05-22,1.1563964091370547
2019-05-23,1.1527364899956793
2019-05-24,1.1522568741983605
2019-05-27,1.1538030337303922
2019-05-28,1.1558340032573708
2019-05-29,1.1549688228941652
2019-05-30,1.1543633052246003
2019-05-31,1.153764377932438
2019-06-03,1.153914058153736
2019-06-04,1.1516913821401389
2019-06-05,1.1523817446547697
2019-06-06,1.1478950915291168
2019-06-10,1.1516652286130338
2019-06-11,1.1575485380544714
2019-06-12,1.1546522318343382
2019-06-13,1.1527740376816433
2019-06-14,1.150837260908234
2019-06-17,1.150684083115135
2019-06-18,1.1530285257180117
2019-06-19,1.1582497081948
2019-06-20,1.1735565688191334
2019-06-21,1.1724396402066966
2019-06-24,1.1771087415669468
2019-06-25,1.1701757716790149
2019-06-26,1.170547344148448
2019-06-27,1.187709047635062
2019-06-28,1.187769603277114
2019-07-01,1.2153017297653517
2019-07-02,1.21682880187698
2019-07-03,1.203087721516811
2019-07-04,1.1953427946182955
2019-07-05,1.2042389906269066
2019-07-08,1.1853151299706777
2019-07-09,1.1857471662410992
2019-07-10,1.1886987158431435
2019-07-11,1.185762624119457
2019-07-12,1.1888788953665865
2019-07-15,1.1930987879804953
2019-07-16,1.1867101684463446
2019-07-17,1.189434567113773
2019-07-18,1.1847842580564196
2019-07-19,1.1886737007932129
2019-07-22,1.1901713625055517
2019-07-23,1.194978796448982
2019-07-24,1.1984349553971057
2019-07-25,1.203460701328979
2019-07-26,1.2074429295910234
2019-07-29,1.2081411479592015
2019-07-30,1.207844603189584
2019-07-31,1.2041749026743216
2019-08-01,1.203775701642701
2019-08-02,1.1968356553400472
2019-08-05,1.1873334941285532
2019-08-06,1.185201951411442
2019-08-07,1.1836983344212235
2019-08-08,1.1863390440658677
2019-08-09,1.183827023580442
2019-08-12,1.18569687282144
2019-08-13,1.1858115904876678
2019-08-14,1.186368834478525
2019-08-15,1.1882369412923894
2019-08-16,1.1885381445690981
2019-08-19,1.1950859120289758
2019-08-20,1.1986981623756525
2019-08-21,1.197184383397987
2019-08-22,1.198563155047344
2019-08-23,1.2042429972235846
2019-08-26,1.1994055433297621
2019-08-27,1.2090658904110019
2019-08-28,1.209266590040033
2019-08-29,1.2084696465590872
2019-08-30,1.211724566398053
2019-09-02,1.221330128687098
2019-09-03,1.2226625130571498
2019-09-04,1.2190753506911904
2019-09-05,1.2234889934508923
2019-09-06,1.2243727274706435
2019-09-09,1.2264428958307187
2019-09-10,1.2229142432169133
2019-09-11,1.2102980571032396
2019-09-12,1.2128666361756582
2019-09-16,1.209770854273935
2019-09-17,1.2027149973447804
2019-09-18,1.2036888364258238
2019-09-19,1.2059944939913327
2019-09-20,1.2094090223800582
2019-09-23,1.2046748667202118
2019-09-24,1.2050434836231925
2019-09-25,1.201512713464503
2019-09-26,1.1981909261263544
2019-09-27,1.1996401185167982
2019-09-30,1.1963996400893033
2019-10-08,1.1958329480597458
2019-10-09,1.1926355259219463
2019-10-10,1.1935061159914389
2019-10-11,1.1943857446173054
2019-10-14,1.1954641845151672
2019-10-15,1.1960471126420926
2019-10-16,1.1951908992968319
2019-10-17,1.1968935103655358
2019-10-18,1.192150121906656
2019-10-21,1.1940605709973982
2019-10-22,1.1961576049528966
2019-10-23,1.1925893088098347
2019-10-24,1.1922644793661974
2019-10-25,1.1990708354454682
2019-10-28,1.199253176306456
2019-10-29,1.2012735678372706
2019-10-30,1.2005136197249162
2019-10-31,1.19925504004906
2019-11-01,1.2080748036463247
2019-11-04,1.2117245939131167
2019-11-05,1.2189709590964684
2019-11-06,1.2175941431873136
2019-11-07,1.2197818266948053
2019-11-08,1.220625868818728
2019-11-11,1.209877317243244
2019-11-12,1.2097594382339427
2019-11-13,1.215250421331983
2019-11-14,1.2152458190867148
2019-11-15,1.2128976814844465
2019-11-18,1.213363061985743
2019-11-19,1.2204204945626167
2019-11-20,1.2148216607333284
2019-11-21,1.211745102620224
2019-11-22,1.2055432914198494
2019-11-25,1.2079133040982897
2019-11-26,1.2109569284814874
2019-11-27,1.2107188093065253
2019-11-28,1.210269343117692
2019-11-29,1.207353572198059
2019-12-02,1.2119103003747351
2019-12-03,1.2156709972306023
2019-12-04,1.214337809767117
2019-12-05,1.217436524180355
2019-12-06,1.221521185825434
2019-12-09,1.2221979236206009
2019-12-10,1.2253467362036403
2019-12-11,1.2233274301922
2019-12-12,1.220201942252009
2019-12-13,1.224626390439479
2019-12-16,1.2254015324276972
2019-12-17,1.230918158676302
2019-12-18,1.2270579516603932
2019-12-19,1.2253989682463098
2019-12-20,1.2245971473438333
2019-12-23,1.2185667974996495
2019-12-24,1.224937411298255
2019-12-25,1.2276876698618515
2019-12-26,1.2319077642150043
2019-12-27,1.229506407182659
2019-12-30,1.2392443807085636
2019-12-31,1.240142382189741
2020-01-02,1.2504729699765134
2020-01-03,1.2504818820503898
2020-01-06,1.2473092431985033
2020-01-07,1.2502297788203747
2020-01-08,1.2438283460981285
2020-01-09,1.2563008583053386
2020-01-10,1.255525375532357
2020-01-13,1.2650450666107333
2020-01-14,1.2626282322189941
2020-01-15,1.2621286603110673
2020-01-16,1.2607780370186712
2020-01-17,1.261492167198683
2020-01-20,1.2689953617002332
2020-01-21,1.257750610898663
2020-01-22,1.2659002686387448
2020-01-23,1.2508538698548108
2020-02-03,1.233068445789306
2020-02-04,1.2441720383157453
2020-02-05,1.2571147261619695
2020-02-06,1.2620629243295047
2020-02-07,1.2575986604175662
2020-02-10,1.2603106554936303
2020-02-11,1.2593269851033861
2020-02-12,1.2601001649006947
2020-02-13,1.2597198053661534
2020-02-14,1.259536623994839
2020-02-17,1.269836000286244
2020-02-18,1.2720713787784177
2020-02-19,1.2705233863744712
2020-02-20,1.2822895070199736
2020-02-21,1.284990824539391
2020-02-24,1.2882827648087067
2020-02-25,1.299189997034462
2020-02-26,1.2788170560615697
2020-02-27,1.2767892404096948
2020-02-28,1.2620342184851645
2020-03-02,1.2756157280658318
2020-03-03,1.2748229201855117
2020-03-04,1.2762591437492694
2020-03-05,1.2822938164847906
2020-03-06,1.27106546236153
2020-03-09,1.2564341651300202
2020-03-10,1.2653666092662115
2020-03-11,1.2562369060831393
2020-03-12,1.2464011266342496
2020-03-13,1.2418328054455323
2020-03-16,1.229776605887582
2020-03-17,1.229776605887582
2020-03-18,1.229776605887582
2020-03-19,1.2297442433453218
2020-03-20,1.2294574883587241
2020-03-23,1.2278316993486154
2020-03-24,1.2303438177155814
2020-03-25,1.230908220961945
2020-03-26,1.233864948341381
2020-03-27,1.2326761512609201
2020-03-30,1.2332685450062817
2020-03-31,1.2328738317372643
2020-04-01,1.2317842816510596
2020-04-02,1.2321027690891224
2020-04-03,1.2329611651256813
2020-04-07,1.2342944528997861
2020-04-08,1.2335090103273794
2020-04-09,1.2340394605109357
2020-04-10,1.2320331253282828
2020-04-13,1.2339078053269457
2020-04-14,1.2359099850127646
2020-04-15,1.2314145482552117
2020-04-16,1.2333119156720571
2020-04-17,1.2407690956039923
2020-04-20,1.244853919441711
2020-04-21,1.2371208874603965
2020-04-22,1.243949954967897
2020-04-23,1.2436466882634776
2020-04-24,1.2402170293535433
2020-04-27,1.2413644496787044
2020-04-28,1.2568323286082894
2020-04-29,1.254993429886408
2020-04-30,1.264307391371236
2020-05-06,1.2658163035383283
2020-05-07,1.2626220320799293
2020-05-08,1.2680189391294345
2020-05-11,1.2647039220788512
2020-05-12,1.2706366722435276
2020-05-13,1.2723701913310637
2020-05-14,1.2611446163680278
2020-05-15,1.2594609614655925
2020-05-18,1.2596286194046142
2020-05-19,1.2657841317493688
2020-05-20,1.261974468135532
2020-05-21,1.2586974891375957
2020-05-22,1.2459924406160146
2020-05-25,1.251425745210986
2020-05-26,1.2549788920263738
2020-05-27,1.2530667451116453
2020-05-28,1.2504561006933284
2020-05-29,1.2578842405691684
2020-06-01,1.266293145061931
2020-06-02,1.2629102741348348
2020-06-03,1.2625122516980483
2020-06-04,1.2611797765968993
2020-06-05,1.2690202555203736
2020-06-08,1.272574166184883
2020-06-09,1.2795898101761547
2020-06-10,1.2786274812303493
2020-06-11,1.2773892958705269
2020-06-12,1.279831293893732
2020-06-15,1.2690465957965984
2020-06-16,1.2775797084131846
2020-06-17,1.2786167288319457
2020-06-18,1.283761647071814
2020-06-19,1.2931894311492576
2020-06-22,1.2961092106393988
2020-06-23,1.3092556048973691
2020-06-24,1.313495899974304
2020-06-29,1.316921752606308
2020-06-30,1.3329026741997598
2020-07-01,1.3493326832700887
2020-07-02,1.362438731209736
2020-07-03,1.3768380655664876
2020-07-06,1.4360273348517893
2020-07-07,1.4458381193374739
2020-07-08,1.4609187923378542
2020-07-09,1.4824566311281482
2020-07-10,1.4671976047846407
2020-07-13,1.5032052462218966
2020-07-14,1.4955962769564803
2020-07-15,1.4970181983059407
2020-07-16,1.422143537874474
2020-07-17,1.4355176641240965
2020-07-20,1.4594975065161033
2020-07-21,1.4726092718755772
2020-07-22,1.4773281729006789
2020-07-23,1.4954754629160718
2020-07-24,1.456262313601838
2020-07-27,1.468651854557907
2020-07-28,1.4681813604082157
2020-07-29,1.4863477048689873
2020-07-30,1.4935880779274553
2020-07-31,1.5035831046010404
2020-08-03,1.513832133723321
2020-08-04,1.51002412030107
2020-08-05,1.5162055360605475
2020-08-06,1.510491700038684
2020-08-07,1.5083358197007617
2020-08-10,1.5036071052034348
2020-08-11,1.4881214244855858
2020-08-12,1.4746382557030375
2020-08-13,1.475980365901998
2020-08-14,1.4769615612783686
2020-08-17,1.4851311594209677
2020-08-18,1.4861404354090186
2020-08-19,1.4807056073125897
2020-08-20,1.47362427372586
2020-08-21,1.4748558641970217
2020-08-24,1.4792634429648082
2020-08-25,1.4816263821277273
2020-08-26,1.4839657345854578
2020-08-27,1.4836366283490845
2020-08-28,1.493545081477962
2020-08-31,1.4945900546675503
2020-09-01,1.496140375522751
2020-09-02,1.4963324040399582
2020-09-03,1.4975108503058685
2020-09-04,1.4902562286354277
2020-09-07,1.4801637993594636
2020-09-08,1.4780419037023893
2020-09-09,1.4695032717309753
2020-09-10,1.4746202510582986
2020-09-11,1.4837115472469606
2020-09-14,1.4878781702491213
2020-09-15,1.4935458190431092
2020-09-16,1.4958743858299004
2020-09-17,1.4979915482876964
2020-09-18,1.49895988355073
2020-09-21,1.4889351281364376
2020-09-22,1.4814035798956688
2020-09-23,1.4858443109078303
2020-09-24,1.4743480561623719
2020-09-25,1.4733179978018967
2020-09-28,1.4784031658293295
2020-09-29,1.4782477763247563
2020-09-30,1.483591985119447
2020-10-09,1.495562364050545
2020-10-12,1.5154210799339387
2020-10-13,1.5258087829017593
2020-10-14,1.5240844148209303
2020-10-15,1.5189433737874884
2020-10-16,1.5112481186000417
2020-10-19,1.5010617290453845
2020-10-20,1.5191976377990095
2020-10-21,1.5157087992684515
2020-10-22,1.5155266443010662
2020-10-23,1.4979470300694142
2020-10-26,1.5015645471969945
2020-10-27,1.5017397815266176
2020-10-28,1.5113860147200187
2020-10-29,1.5173161885079625
2020-10-30,1.5092802901929245
2020-11-02,1.5311918431895766
2020-11-03,1.5365865619586692
2020-11-04,1.546002142825505
2020-11-05,1.5588269875470555
2020-11-06,1.5634873612670568
2020-11-09,1.573557304918641
2020-11-10,1.568204499294946
2020-11-11,1.5522836865660252
2020-11-12,1.5587066185141452
2020-11-13,1.5504341860866302
2020-11-16,1.5599780183548142
2020-11-17,1.5557316573977484
2020-11-18,1.5531815638068864
2020-11-19,1.555153743156076
2020-11-20,1.5610524732570208
2020-11-23,1.5706571913514953
2020-11-24,1.5644954985284996
2020-11-25,1.5548739516577388
2020-11-26,1.55789386905837
2020-11-27,1.5685849613723093
2020-11-30,1.5645736030721948
2020-12-01,1.5776626842766472
2020-12-02,1.5761302987119432
2020-12-03,1.5687243366580403
2020-12-04,1.5704734460721987
2020-12-07,1.559449054367536
2020-12-08,1.5574766632836192
2020-12-09,1.5483946249217462
2020-12-10,1.5474545585309243
2020-12-11,1.5458930300340512
2020-12-14,1.5511162143672457
2020-12-15,1.5549640830847198
2020-12-16,1.5594186424249148
2020-12-17,1.5698662784313142
2020-12-18,1.5695772001085513
2020-12-21,1.5881383939120564
2020-12-22,1.583741277995859
2020-12-23,1.5965080144030497
2020-12-24,1.5927854583587706
2020-12-25,1.6050729451030907
2020-12-28,1.6136189159617658
2020-12-29,1.5989505893589746
2020-12-30,1.6245250232751247
2020-12-31,1.6412767994844546
2021-01-04,1.6687311952601447
2021-01-05,1.7053694951758847
2021-01-06,1.7124900864583674
2021-01-07,1.7523814191733444
2021-01-08,1.7355531200742
2021-01-11,1.7259507705869188
2021-01-12,1.7700506849692825
2021-01-13,1.7559576822451364
2021-01-14,1.716532037597718
2021-01-15,1.7155207200797333
2021-01-18,1.7276389410401969
2021-01-19,1.7059043432246284
2021-01-20,1.7097962505377833
2021-01-21,1.7234682780729758
2021-01-22,1.7179247404134614
2021-01-25,1.7243585741490406
2021-01-26,1.7033368557651436
2021-01-27,1.7191315088335892
2021-01-28,1.6949810717868816
2021-01-29,1.6889412664702337
2021-02-01,1.688296865475933
2021-02-02,1.6921313433892315
2021-02-03,1.6922300906040784
2021-02-04,1.6894003274770488
2021-02-05,1.6964335779831095
2021-02-08,1.708996862546617
2021-02-09,1.7203535989003298
2021-02-10,1.7458907205019734
2021-02-18,1.7368689874225887
2021-02-19,1.7283653163656298
2021-02-22,1.6935165975719568
2021-02-23,1.6942653118935562
2021-02-24,1.6710703381656888
2021-02-25,1.676165213032289
2021-02-26,1.6563553846781576
2021-03-01,1.6616043043253772
2021-03-02,1.655603431871571
2021-03-03,1.6622341720624672
2021-03-04,1.6561661143783253
2021-03-05,1.6534289468413321
2021-03-08,1.6527530951883895
2021-03-09,1.651692787131166
2021-03-10,1.6490930345804387
2021-03-11,1.6523115687598817
2021-03-12,1.6549332864876842
2021-03-15,1.6553112145513282
2021-03-16,1.6566118580440066
2021-03-17,1.6526602023313253
2021-03-18,1.6522453314991152
2021-03-19,1.6466348327709304
2021-03-22,1.6495400095307873
2021-03-23,1.6482061744302126
2021-03-24,1.6473131042336164
2021-03-25,1.6479214797667254
2021-03-26,1.647447052659416
2021-03-29,1.6496098104070234
2021-03-30,1.6499489493470976
2021-03-31,1.64922461176499
2021-04-01,1.6522125822648526
2021-04-02,1.6560950122790152
2021-04-06,1.6512950650015246
2021-04-07,1.643494475872902
2021-04-08,1.6449202521220092
2021-04-09,1.6324002119243033
2021-04-12,1.6267702426663821
2021-04-13,1.6248723827999585
2021-04-14,1.6272394270678572
2021-04-15,1.626941052323466
2021-04-16,1.6315067557391985
2021-04-19,1.6500141232390566
2021-04-20,1.6508574150986768
2021-04-21,1.6553910904405789
2021-04-22,1.6567553966395658
2021-04-23,1.6625597116700643
2021-04-26,1.6543085426484723
2021-04-27,1.656739204807898
2021-04-28,1.67230644126296
2021-04-29,1.6773026380794767
2021-04-30,1.682539093710435
2021-05-06,1.66778101082113
2021-05-07,1.6497278592036129
2021-05-10,1.656558023201889
2021-05-11,1.6574505439079519
2021-05-12,1.660850493248237
2021-05-13,1.6564014368863822
2021-05-14,1.6670128474150034
2021-05-17,1.67739803297991
2021-05-18,1.6746977440396305
2021-05-19,1.6743123467692587
2021-05-20,1.6715034862856337
2021-05-21,1.665243730649664
2021-05-24,1.6715743094857096
2021-05-25,1.6900187011315773
2021-05-26,1.6904618284034048
2021-05-27,1.6897921052821916
2021-05-28,1.696351333964628
2021-05-31,1.702197762619634
2021-06-01,1.7041395370258787
2021-06-02,1.6926956127030588
2021-06-03,1.686147444723809
2021-06-04,1.6934194652233667
2021-06-07,1.6901570649933888
2021-06-08,1.6852852411599832
2021-06-09,1.6845697237208628
2021-06-10,1.6948721646971014
2021-06-11,1.6948410758381307
2021-06-15,1.6935137806688856
2021-06-16,1.6768434767368463
2021-06-17,1.6848797756652811
2021-06-18,1.6919841369841884
2021-06-21,1.6914984987128998
2021-06-22,1.690451145464675
2021-06-23,1.6944014544628974
2021-06-24,1.6983415891152835
2021-06-25,1.7009779725980256
2021-06-28,1.7051047764429634
2021-06-29,1.7059694526226348
2021-06-30,1.7079345855936405
2021-07-01,1.7014873598854856
2021-07-02,1.6840937866026815
2021-07-05,1.6909256929866023
2021-07-06,1.6804921386682228
2021-07-07,1.6913857842385298
2021-07-08,1.6917278202131383
2021-07-09,1.6929897865969523
2021-07-12,1.6968449212639731
2021-07-13,1.692313566557703
2021-07-14,1.6809867229951494
2021-07-15,1.6818760467233402
2021-07-16,1.675437681823744
2021-07-19,1.6760849720282902
2021-07-20,1.676906140117626
2021-07-21,1.6894638522162138
2021-07-22,1.6872864123628033
2021-07-23,1.6856330213961248
2021-07-26,1.6707443892736569
2021-07-27,1.653047457159406
2021-07-28,1.6501210517505043
2021-07-29,1.6592421906996762
2021-07-30,1.6661080786737372
2021-08-02,1.673157265321884
2021-08-03,1.6690105973621738
2021-08-04,1.682100682803859
2021-08-05,1.6818323993587831
2021-08-06,1.6784119236273696
2021-08-09,1.6763139729420864
2021-08-10,1.674779565404746
2021-08-11,1.6691095733199173
2021-08-12,1.6755701225865625
2021-08-13,1.6699822104567181
2021-08-16,1.6681048261786922
2021-08-17,1.6636703749640744
2021-08-18,1.6656264939674037
2021-08-19,1.6584971203753687
2021-08-20,1.6557302380218588
2021-08-23,1.6570134926978537
2021-08-24,1.6581792331626097
2021-08-25,1.6599446446311423
2021-08-26,1.6561349671050496
2021-08-27,1.6604386666348334
2021-08-30,1.6608014161564293
2021-08-31,1.665709444387498
2021-09-01,1.6635145730982248
2021-09-02,1.6703530679965957
2021-09-03,1.663904114436107
2021-09-06,1.6662643679972697
2021-09-07,1.671625339378695
2021-09-08,1.6670562656925407
2021-09-09,1.6743677113967332
2021-09-10,1.678453427019744
2021-09-13,1.6803467323036474
2021-09-14,1.6643332629713445
2021-09-15,1.6571637911924026
2021-09-16,1.6527800910897381
2021-09-17,1.6524793222214862
2021-09-22,1.657544479400881
2021-09-23,1.6544326149319855
2021-09-24,1.6529793488495579
2021-09-27,1.6566630017430146
2021-09-28,1.6570185828128372
2021-09-29,1.6573879247434462
2021-09-30,1.6601207717613726
2021-10-08,1.6703226601180483
2021-10-11,1.6697589407780002
2021-10-12,1.6695078565974213
2021-10-13,1.6774933595208912
2021-10-14,1.6717718307577993
2021-10-15,1.6709102493757053
2021-10-18,1.651082180362872
2021-10-19,1.6537438846959511
2021-10-20,1.652020198667351
2021-10-21,1.649366054001227
2021-10-22,1.6539830413711247
2021-10-25,1.6549176969969799
2021-10-26,1.6489970304626944
2021-10-27,1.6445804201306125
2021-10-28,1.646446695041256
2021-10-29,1.6602388373385968
2021-11-01,1.659294624312615
2021-11-02,1.6558310931819658
2021-11-03,1.645211209169302
2021-11-04,1.6519138516979521
2021-11-05,1.6485788130090882
2021-11-08,1.646401378748298
2021-11-09,1.6451572254658127
2021-11-10,1.638937942389111
2021-11-11,1.6419246038249853
2021-11-12,1.6399306229793071
2021-11-15,1.6348974169604051
2021-11-16,1.6335932509386746
2021-11-17,1.631549376743615
2021-11-18,1.62665203583088
2021-11-19,1.6317333536340344
2021-11-22,1.6275226457275012
2021-11-23,1.6263470230663932
2021-11-24,1.6248988345502275
2021-11-25,1.6225062063542763
2021-11-26,1.6185993042649462
2021-11-29,1.6204023281115798
2021-11-30,1.6178162983699431
2021-12-01,1.6169956605884865
2021-12-02,1.6176813710286762
2021-12-03,1.624745713584205
2021-12-06,1.621214897764167
2021-12-07,1.619742360144715
2021-12-08,1.6255679941395584
2021-12-09,1.6330966897684664
2021-12-10,1.626904738224107
2021-12-13,1.6341186416081357
2021-12-14,1.6282838797798869
2021-12-15,1.6226215793703602
2021-12-16,1.6265172171903435
2021-12-17,1.6152510167192373
2021-12-20,1.6114939077445884
2021-12-21,1.6161829431207486
2021-12-22,1.6160237830960402
2021-12-23,1.6208965201800734
2021-12-24,1.6223999827169155
2021-12-27,1.6201768276513968
2021-12-28,1.6179095229553022
2021-12-29,1.61162990152021
2021-12-30,1.6140889302381822
2021-12-31,1.6159230762633887
2022-01-04,1.6198419620021847
2022-01-05,1.6161802492305957
2022-01-06,1.6098195378556004
2022-01-07,1.6186352449029748
2022-01-10,1.623762866723551
2022-01-11,1.6187976344732828
2022-01-12,1.615088056684387
2022-01-13,1.609105496273091
2022-01-14,1.5999273437241497
2022-01-17,1.599359418519264
2022-01-18,1.6044966169489323
2022-01-19,1.6061203701585063
2022-01-20,1.6106036001799096
2022-01-21,1.608154081516835
2022-01-24,1.6045948438113034
2022-01-25,1.5981121939742409
2022-01-26,1.5984445051008713
2022-01-27,1.5934811064620455
2022-01-28,1.5889473665273783
2022-02-07,1.597741363393238
2022-02-08,1.6025063733529563
2022-02-09,1.6048545027205607
2022-02-10,1.6097252847777135
2022-02-11,1.612993938635792
2022-02-14,1.6048297619473428
2022-02-15,1.5983861945428384
2022-02-16,1.6006958638714925
2022-02-17,1.6012074865975336
2022-02-18,1.6070036475627703
2022-02-21,1.604019982130591
2022-02-22,1.5983717368568775
2022-02-23,1.592713859781642
2022-02-24,1.5879065088424187
2022-02-25,1.5859333451292303
2022-02-28,1.5879469927587877
2022-03-01,1.5900744780135174
2022-03-02,1.5920122594522632
2022-03-03,1.5913276590640728
2022-03-04,1.589600521442771
2022-03-07,1.587753691060923
2022-03-08,1.5821971486483735
2022-03-09,1.5821269595453402
2022-03-10,1.583609019610899
2022-03-11,1.5838920183449157
2022-03-14,1.579700763870342
2022-03-15,1.56990569795976
2022-03-16,1.5757036992168516
2022-03-17,1.5775968475679976
2022-03-18,1.5782206899720668
2022-03-21,1.583507221697974
2022-03-22,1.581450961457143
2022-03-23,1.5782374766117642
2022-03-24,1.57779234216608
2022-03-25,1.5743264403907307
2022-03-28,1.5739339000266992
2022-03-29,1.5777535420616506
2022-03-30,1.5775311878169076
2022-03-31,1.5768734383311085
2022-04-01,1.5790639905733288
2022-04-06,1.5788437397934587
2022-04-07,1.5736057776039432
2022-04-08,1.5774808634537407
2022-04-11,1.5704930946333715
2022-04-12,1.5689154385972048
2022-04-13,1.5717741715282414
2022-04-14,1.5776663875652628
2022-04-15,1.57649647633004
2022-04-18,1.564964408556154
2022-04-19,1.562231255488853
2022-04-20,1.5528080992920146
2022-04-21,1.549312152294314
2022-04-22,1.5520353366385082
2022-04-25,1.5422469156439698
2022-04-26,1.5451646669983212
2022-04-27,1.5496653262047564
2022-04-28,1.5492006808729617
2022-04-29,1.558098710819996
2022-05-05,1.5541738197612502
2022-05-06,1.5407095876728192
2022-05-09,1.5356611892758076
2022-05-10,1.5409349112545185
2022-05-11,1.5428227351027455
2022-05-12,1.5430321841278036
2022-05-13,1.5500687788261442
2022-05-16,1.5459232735493007
2022-05-17,1.554040089726343
2022-05-18,1.5544974808007195
2022-05-19,1.5621694030706126
2022-05-20,1.5669739349182377
2022-05-23,1.5639606673754718
2022-05-24,1.557031189767229
2022-05-25,1.56215290983087
2022-05-26,1.5610263754543758
2022-05-27,1.5609781362411432
2022-05-30,1.5608898165132838
2022-05-31,1.5633838199048231
2022-06-01,1.5617908983014537
2022-06-02,1.5665530060162336
2022-06-06,1.5841039055296433
2022-06-07,1.581540436245068
2022-06-08,1.5941004469927222
2022-06-09,1.577085323274415
2022-06-10,1.5938662095918823
2022-06-13,1.5795678128457609
2022-06-14,1.5882709729167193
2022-06-15,1.5966087562022782
2022-06-16,1.5900662157847454
2022-06-17,1.6017943986907297
2022-06-20,1.6091272774522813
2022-06-21,1.6097633905244524
2022-06-22,1.598027119033703
2022-06-23,1.6146621953290201
2022-06-24,1.6293811950586485
2022-06-27,1.6448524214259395
2022-06-28,1.658512098775118
2022-06-29,1.6356439482915353
2022-06-30,1.6572776595060188
2022-07-01,1.649856606129533
2022-07-04,1.6643847525135993
2022-07-05,1.6605841204585579
2022-07-06,1.6375679763142754
2022-07-07,1.6343997090958255
2022-07-08,1.6375963716033288
2022-07-11,1.6273060205706484
2022-07-12,1.6249379429934792
2022-07-13,1.6245820991427573
2022-07-14,1.6267125728389646
2022-07-15,1.6154443871002993
2022-07-18,1.6175176042880441
2022-07-19,1.615901581667236
2022-07-20,1.6143569663892212
2022-07-21,1.6145207641414345
2022-07-22,1.614529743112493
2022-07-25,1.614892923287222
2022-07-26,1.6110585064092227
2022-07-27,1.610110115590582
2022-07-28,1.6090737849124763
2022-07-29,1.609046714517615
2022-08-01,1.6087845118179023
2022-08-02,1.6077316596284705
2022-08-03,1.606631730843153
2022-08-04,1.608694152869574
2022-08-05,1.608646885717813
2022-08-08,1.6098677441527125
2022-08-09,1.6096874011476932
2022-08-10,1.6081348655782661
2022-08-11,1.612736447990459
2022-08-12,1.6095952521840806
2022-08-15,1.6043569003227105
2022-08-16,1.6030861087184636
2022-08-17,1.606968495463793
2022-08-18,1.603436175611197
2022-08-19,1.6020203508040045
2022-08-22,1.6073009324799559
2022-08-23,1.6056821260737737
2022-08-24,1.5996924780737833
2022-08-25,1.6050217642286329
2022-08-26,1.6039952515949183
2022-08-29,1.6010248114066492
2022-08-30,1.5966433851706519
2022-08-31,1.5971635584146193
2022-09-01,1.5948470572353963
2022-09-02,1.5913538028625025
2022-09-05,1.5937002772955668
2022-09-06,1.5954305882528599
2022-09-07,1.5921444717892428
2022-09-08,1.5932435494300246
2022-09-09,1.6035749398987031
2022-09-13,1.6049171274811944
2022-09-14,1.6000993255122946
2022-09-15,1.603076833742111
2022-09-16,1.5866355223673025
2022-09-19,1.59068921443868
2022-09-20,1.5848627906551278
2022-09-21,1.580390227729112
2022-09-22,1.5772622428509973
2022-09-23,1.5766186267642528
2022-09-26,1.5754908513755759
2022-09-27,1.578240895628539
2022-09-28,1.5767128782221356
2022-09-29,1.5741096389251563
2022-09-30,1.5734583476643083
2022-10-10,1.5665726540828933
2022-10-11,1.5658979431140758
2022-10-12,1.564964891706651
2022-10-13,1.5646778007289353
2022-10-14,1.5648348951303188
2022-10-17,1.5650490558147974
2022-10-18,1.5648572249315744
2022-10-19,1.5628002660068805
2022-10-20,1.5637321780507591
2022-10-21,1.5646399278914296
2022-10-24,1.5620767501959805
2022-10-25,1.558859296574683
2022-10-26,1.5618223625582657
2022-10-27,1.5619451147134302
2022-10-28,1.5606145409139798
2022-10-31,1.562223732933685
2022-11-01,1.5650178259341132
2022-11-02,1.5674507331444056
2022-11-03,1.5659030179467357
2022-11-04,1.5694117227567195
2022-11-07,1.571015998679886
2022-11-08,1.567310731694999
2022-11-09,1.564467423218037
2022-11-10,1.558318721316936
2022-11-11,1.5634243202338158
2022-11-14,1.561046923131761
2022-11-15,1.5697126267259884
2022-11-16,1.563134950728647
2022-11-17,1.5591126052404092
2022-11-18,1.5545042449522006
2022-11-21,1.5487740212089258
2022-11-22,1.5505397569055919
2022-11-23,1.5476643553045804
2022-11-24,1.545624548160668
2022-11-25,1.5515325806464235
2022-11-28,1.5391352381199637
2022-11-29,1.5588445665527528
2022-11-30,1.5557509957581053
2022-12-01,1.5583489385068399
2022-12-02,1.5504774932014005
2022-12-05,1.5706630497089609
2022-12-06,1.5726782186936012
2022-12-07,1.5676559884537473
2022-12-08,1.5681444441374734
2022-12-09,1.5860308131359129
2022-12-12,1.5696607034572885
2022-12-13,1.5717319056316048
2022-12-14,1.5818736354575273
2022-12-15,1.575519062478302
2022-12-16,1.578912680599403
2022-12-19,1.5643585951731753
2022-12-20,1.5459946282827668
2022-12-21,1.5487893425632946
2022-12-22,1.550553048189024
2022-12-23,1.5512447774350195
2022-12-26,1.547222886919567
2022-12-27,1.5505079140541709
2022-12-28,1.548913000015554
2022-12-29,1.5465910555343603
2022-12-30,1.5468714586928853
2023-01-03,1.5459276256392587
2023-01-04,1.547183309188913
2023-01-05,1.5506741601400753
2023-01-06,1.5510955280348135
2023-01-09,1.5539487930663425
2023-01-10,1.553383522952482
2023-01-11,1.553554923334764
2023-01-12,1.5525269458488846
2023-01-13,1.5646029205994727
2023-01-16,1.5771704322172306
2023-01-17,1.5725386537930077
2023-01-18,1.5667622063683633
2023-01-19,1.57486691030656
2023-01-20,1.5768902785728418
2023-01-30,1.5770481698750263
2023-01-31,1.5666650138974079
2023-02-01,1.5791728951934596
2023-02-02,1.571628300626096
2023-02-03,1.5616033446081206
2023-02-06,1.5510738968880045
2023-02-07,1.5505020262664984
2023-02-08,1.548412066734387
2023-02-09,1.5528124657029212
2023-02-10,1.5482251865151238
2023-02-13,1.551150168719173
2023-02-14,1.552953264084946
2023-02-15,1.5512631580597496
2023-02-16,1.5500386239735138
2023-02-17,1.5478783708941224
2023-02-20,1.556215533991271
2023-02-21,1.557704956711571
2023-02-22,1.5563478824327117
2023-02-23,1.5564892210406422
2023-02-24,1.5515034323942352
2023-02-27,1.5495381538037205
2023-02-28,1.5517132203095187
2023-03-01,1.5582504291884935
2023-03-02,1.5594433466831001
2023-03-03,1.5631214151292308
2023-03-06,1.5590921477242972
2023-03-07,1.5556189284246442
2023-03-08,1.5551815281085284
2023-03-09,1.5543767409788372
2023-03-10,1.550997731275391
2023-03-13,1.5581001119545768
2023-03-14,1.5562310867007625
2023-03-15,1.5587219355244377
2023-03-16,1.5557854745949349
2023-03-17,1.5606133049618032
2023-03-20,1.5598181562133162
2023-03-21,1.5590699845366336
2023-03-22,1.5609074708302098
2023-03-23,1.5632249659251476
2023-03-24,1.5609485173211646
2023-03-27,1.5550537017689008
2023-03-28,1.5518320891342772
2023-03-29,1.5538391232263635
2023-03-30,1.5532860982487
2023-03-31,1.5545984371254604
2023-04-03,1.554138607073487
2023-04-04,1.5595075491064299
2023-04-06,1.5630543335390277
2023-04-07,1.5680401969040447
2023-04-10,1.5692936397961377
2023-04-11,1.5702179516396844
2023-04-12,1.575700368233124
2023-04-13,1.567190757423532
2023-04-14,1.57100997210499
2023-04-17,1.5761392427818404
2023-04-18,1.5772306809613301
2023-04-19,1.5693860142619394
2023-04-20,1.5676276004881842
2023-04-21,1.5542903383545807
2023-04-24,1.5518370517691014
2023-04-25,1.551064556911675
2023-04-26,1.5486419094836121
2023-04-27,1.5526004129927695
2023-04-28,1.5529574679531641
2023-05-04,1.552635976929814
2023-05-05,1.5495444930149684
2023-05-08,1.5570282505811355
2023-05-09,1.5539155057644343
2023-05-10,1.5474999720874876
2023-05-11,1.5472014077244667
2023-05-12,1.5438786262147752
2023-05-15,1.5478521836382082
2023-05-16,1.546974790169654
2023-05-17,1.5446830957857316
2023-05-18,1.5442418934323359
2023-05-19,1.541221676835627
2023-05-22,1.5431345059304806
2023-05-23,1.540056438413134
2023-05-24,1.5378302916341533
2023-05-25,1.5361028751479338
2023-05-26,1.5354993810675572
2023-05-29,1.5353951135663664
2023-05-30,1.5348450871119295
2023-05-31,1.5338807307861986
2023-06-01,1.533683776994795
2023-06-02,1.5337574584417986
2023-06-05,1.5328085717957283
2023-06-06,1.52864169612895
2023-06-07,1.528601468715894
2023-06-08,1.5294898266705896
2023-06-09,1.5291828069773556
2023-06-12,1.5294561099348087
2023-06-13,1.5289044052059386
2023-06-14,1.530574830963198
2023-06-15,1.5335219909139592
2023-06-16,1.5359771612030024
2023-06-19,1.530027579097585
2023-06-20,1.5320680358616583
2023-06-21,1.5277553060875246
2023-06-26,1.5245637931005849
2023-06-27,1.5291729087322248
2023-06-28,1.5276619527241435
2023-06-29,1.5261672258858854
2023-06-30,1.5267237751527198
2023-07-03,1.5304274143167194
2023-07-04,1.5336610290231965
2023-07-05,1.5323655485608134
2023-07-06,1.5307960759958195
2023-07-07,1.529917587578251
2023-07-10,1.5294525298535904
2023-07-11,1.5331574127790377
2023-07-12,1.5324941113844874
2023-07-13,1.537146631487059
2023-07-14,1.535950991706942
2023-07-17,1.5300694674311222
2023-07-18,1.530414938201353
2023-07-19,1.5300416769065246
2023-07-20,1.527047496150184
2023-07-21,1.5278991551951975
2023-07-24,1.5245893603570335
2023-07-25,1.5328061273576927
2023-07-26,1.532469527552797
2023-07-27,1.5334257926987145
2023-07-28,1.558123229687496
2023-07-31,1.5645344292134051
2023-08-01,1.5558227223304124
2023-08-02,1.551437424186022
2023-08-03,1.559383623603501
2023-08-04,1.5623635566921463
2023-08-07,1.5548520207340222
2023-08-08,1.5495947675745676
2023-08-09,1.548191272907329
2023-08-10,1.548195429614693
2023-08-11,1.528409296798679
2023-08-14,1.524632330235659
2023-08-15,1.5236734884484027
2023-08-16,1.5238969543885386
2023-08-17,1.5241415876219941
2023-08-18,1.5239041477747985
2023-08-21,1.5215208830486722
2023-08-22,1.5216995085630292
2023-08-23,1.5211902288722048
2023-08-24,1.5209512816829396
2023-08-25,1.5214713923200476
2023-08-28,1.5214186505635998
2023-08-29,1.5211145660715832
2023-08-30,1.5210149792237015
2023-08-31,1.519579859139188
2023-09-01,1.5208733941826715
2023-09-04,1.5238566234105184
2023-09-05,1.5217900298558458
2023-09-06,1.521417190743167
2023-09-07,1.5203702543507793
2023-09-08,1.5191930250091776
2023-09-11,1.519244305203189
2023-09-12,1.5181473834990111
2023-09-13,1.517359442494402
2023-09-14,1.5188947668461195
2023-09-15,1.5188614770863988
2023-09-18,1.520553842524944
2023-09-19,1.52043187209411
2023-09-20,1.5189333120490505
2023-09-21,1.5158906554104397
2023-09-22,1.5175246498716117
2023-09-25,1.5169100419737398
2023-09-26,1.5157676966117282
2023-09-27,1.5153903451362676
2023-09-28,1.5149817989090328
2023-10-09,1.5159677760887564
2023-10-10,1.5162126113547103
2023-10-11,1.5180808978238405
2023-10-12,1.5186160278037268
2023-10-13,1.5188639575824088
2023-10-16,1.5161908362176852
2023-10-17,1.5175914552055592
2023-10-18,1.517729221503309
2023-10-19,1.513543085830178
2023-10-20,1.5116598948262032
2023-10-23,1.5137325039206897
2023-10-24,1.5132282373619823
2023-10-25,1.51391222667683
2023-10-26,1.5131487286011382
2023-10-27,1.5153715981431484
2023-10-30,1.5216850465062475
2023-10-31,1.5208561114794188
2023-11-01,1.518519393384627
2023-11-02,1.5158358519353756
2023-11-03,1.517648759509792
2023-11-06,1.5229105109356085
2023-11-07,1.521219155849864
2023-11-08,1.5206923982957643
2023-11-09,1.5177653389640278
2023-11-10,1.5164460092656733
2023-11-13,1.5127091454482768
2023-11-14,1.5127349923548274
2023-11-15,1.5149252114195104
2023-11-16,1.5111256199946586
2023-11-17,1.5102131504061598
2023-11-20,1.5079615640029416
2023-11-21,1.5082926848440923
2023-11-22,1.5071736637237012
2023-11-23,1.507059967631639
2023-11-24,1.5077082123170094
2023-11-27,1.5076252833094392
2023-11-28,1.5081288284839165
2023-11-29,1.5084006557649556
2023-11-30,1.5100095153669089
2023-12-01,1.5088076830426378
2023-12-04,1.510290836108827
2023-12-05,1.5065400658821075
2023-12-06,1.5067423769418937
2023-12-07,1.5062137557336504
2023-12-08,1.5072428586297801
2023-12-11,1.5083263514106706
2023-12-12,1.508237432157553
2023-12-13,1.5075761018052356
2023-12-14,1.506890908559976
2023-12-15,1.5062389821833153
2023-12-18,1.5069489450878983
2023-12-19,1.5064763047213663
2023-12-20,1.504721281895608
2023-12-21,1.5044199719827367
2023-12-22,1.5039521413288401
2023-12-25,1.504757275258952
2023-12-26,1.5042392441710877
2023-12-27,1.5046388021374362
2023-12-28,1.5046993618087718
2023-12-29,1.5092907929647466
2024-01-02,1.505348452747901
2024-01-03,1.5050041316126175
2024-01-04,1.5041103516204706
2024-01-05,1.5024567032011331
2024-01-08,1.4980248540500019
2024-01-09,1.501005475237526
2024-01-10,1.500158652341246
2024-01-11,1.4990700723996147
2024-01-12,1.5002735000820289
2024-01-15,1.5011396105498078
2024-01-16,1.5041349586637927
2024-01-17,1.4986636546701169
2024-01-18,1.5027671148454431
2024-01-19,1.5012213024530632
2024-01-22,1.499629190611245
2024-01-23,1.4995139772466015
2024-01-24,1.5017403846101847
2024-01-25,1.5066217691484172
2024-01-26,1.5094165509528106
2024-01-29,1.5107495373899633
2024-01-30,1.5055658218664543
2024-01-31,1.5050065079531532
2024-02-01,1.5031647489269557
2024-02-02,1.5020331324948966
2024-02-05,1.5084357034493345
2024-02-06,1.5143475488755138
2024-02-07,1.5209801467996653
2024-02-08,1.5198445785977182
2024-02-19,1.52500065422194
2024-02-20,1.5273749580186817
2024-02-21,1.5382587125944516
2024-02-22,1.5416448382284216
2024-02-23,1.540081718536241
2024-02-26,1.529438438141128
2024-02-27,1.5338823670821673
2024-02-28,1.5240872653135045
2024-02-29,1.536373992879906
2024-03-01,1.5396997186953307
2024-03-04,1.5381584878767156
2024-03-05,1.5483554182513586
2024-03-06,1.5439552988869205
2024-03-07,1.5402133063450736
2024-03-08,1.5392139927747426
2024-03-11,1.5494541639418762
2024-03-12,1.5483322407708462
2024-03-13,1.5427032201397275
2024-03-14,1.5446110206484656
2024-03-15,1.5429491461357805
2024-03-18,1.5514948471308265
2024-03-19,1.547669908100041
2024-03-20,1.547355834957455
2024-03-21,1.5475130020543182
2024-03-22,1.5418057505880371
2024-03-25,1.538047648984407
2024-03-26,1.5417921251021367
2024-03-27,1.5355079303066232
2024-03-28,1.5364545023663339
2024-03-29,1.538922015041025
2024-04-01,1.546653757589642
2024-04-02,1.5433309964012354
2024-04-03,1.544515465375388
2024-04-08,1.5403869804520642
2024-04-09,1.5389972096870261
2024-04-10,1.5410807726220794
2024-04-11,1.5425969863062319
2024-04-12,1.5399126545842952
2024-04-15,1.5456312754270018
2024-04-16,1.5462286841925663
2024-04-17,1.5506211043825568
2024-04-18,1.551756420917708
2024-04-19,1.552707256043403
2024-04-22,1.5454657365439959
2024-04-23,1.5399042453693894
2024-04-24,1.5403070460525874
2024-04-25,1.5454374982185304
2024-04-26,1.547321578909374
2024-04-29,1.549358597725937
2024-04-30,1.549518510563715
2024-05-06,1.562796081786878
2024-05-07,1.5630652513138832
2024-05-08,1.554018842099662
2024-05-09,1.5627388246868414
2024-05-10,1.564198251761678
2024-05-13,1.5644324881933436
2024-05-14,1.5653902893003104
2024-05-15,1.558335108922563
2024-05-16,1.5636715694176897
2024-05-17,1.573573899710712
2024-05-20,1.5731693404035616
2024-05-21,1.5702747878733634
2024-05-22,1.570688154016659
2024-05-23,1.5622849857046932
2024-05-24,1.5522163213092135
2024-05-27,1.5544056527580137
2024-05-28,1.5497785291789463
2024-05-29,1.551344589330069
2024-05-30,1.5491766840605974
2024-05-31,1.5455696943183004
2024-06-03,1.547961877666808
2024-06-04,1.548951656031547
2024-06-05,1.5493880117917254
2024-06-06,1.5500429452275541
2024-06-07,1.548588407364195
2024-06-11,1.5489117200018157
2024-06-12,1.5507091569226148
2024-06-13,1.5520116951918526
2024-06-14,1.55233796338426
2024-06-17,1.55552090430475
2024-06-18,1.5565872840291526
2024-06-19,1.5560827463429099
2024-06-20,1.555840676672377
2024-06-21,1.5561306288701033
2024-06-24,1.5565706680340143
2024-06-25,1.5548041251309521
2024-06-26,1.5557389058814326
2024-06-27,1.556202742898428
2024-06-28,1.5573220203562768
2024-07-01,1.5590453526627155
2024-07-02,1.5598944279982745
2024-07-03,1.5582717129503278
2024-07-04,1.5592311557417982
2024-07-05,1.5571648660412067
2024-07-08,1.5594706368839037
2024-07-09,1.5637836979395068
2024-07-10,1.5602033785601224
2024-07-11,1.5634661336958058
2024-07-12,1.5626333767644316
2024-07-15,1.5644663933977236
2024-07-16,1.5680105772626547
2024-07-17,1.5668227523112146
2024-07-18,1.5671168639660213
2024-07-19,1.5692749076541674
2024-07-22,1.5640292493248265
2024-07-23,1.5477108707468978
2024-07-24,1.5429338199391185
2024-07-25,1.542984933301626
2024-07-26,1.5400905140170293
2024-07-29,1.5357206647854167
2024-07-30,1.5341068675132308
2024-07-31,1.536894890330849
2024-08-01,1.5388302651929173
2024-08-02,1.5366804889247345
2024-08-05,1.5345822327373944
2024-08-06,1.533419658325715
2024-08-07,1.5331138860734217
2024-08-08,1.532633499361856
2024-08-09,1.5308379336080438
2024-08-12,1.531696244491819
2024-08-13,1.5310611631670021
2024-08-14,1.5307762951207
2024-08-15,1.5330907141084966
2024-08-16,1.5321946697710849
2024-08-19,1.5313777524887993
2024-08-20,1.5304935024596684
2024-08-21,1.530101794436705
2024-08-22,1.5297146683330787
2024-08-23,1.5303881674303288
2024-08-26,1.5291831931377817
2024-08-27,1.5286979130162068
2024-08-28,1.5257857630439806
2024-08-29,1.521906308813913
2024-08-30,1.5217609673778005
2024-09-02,1.515450755953614
2024-09-03,1.51832289733595
2024-09-04,1.5169395262691048
2024-09-05,1.516778511803458
2024-09-06,1.5124694557046727
2024-09-09,1.5078689311834947
2024-09-10,1.506954570908089
2024-09-11,1.5113822050149335
2024-09-12,1.5104069342345714
2024-09-13,1.5083046332384078
2024-09-18,1.5108485426798253
2024-09-19,1.5122134039734036
2024-09-20,1.5104880469631838
2024-09-23,1.5106454899461754
2024-09-24,1.5170791087372424
2024-09-25,1.5262420464399993
2024-09-26,1.5568415192889007
2024-09-27,1.616094287067392
2024-09-30,1.721019689012268
2024-10-08,1.7916675440092782
2024-10-09,1.6829012785846873
2024-10-10,1.7018022242344149
2024-10-11,1.6667218704022964
2024-10-14,1.6911252237066479
2024-10-15,1.6556949491341084
2024-10-16,1.6417500253710022
2024-10-17,1.6159119282748093
2024-10-18,1.6580092571816893
2024-10-21,1.665345938348466
2024-10-22,1.6789288229614918
2024-10-23,1.6878858190560633
2024-10-24,1.6709117579192687
2024-10-25,1.6844117922727297
2024-10-28,1.6885832475793896
2024-10-29,1.6774805648502424
2024-10-30,1.6716071767202079
2024-10-31,1.6773145498830964
2024-11-01,1.676770474117273
2024-11-04,1.6871011862443324
2024-11-05,1.7045939780564205
2024-11-06,1.6994431204557705
2024-11-07,1.726136437085773
2024-11-08,1.7149319278672552
2024-11-11,1.7156979237003591
2024-11-12,1.709536911490502
2024-11-13,1.7091714071657167
2024-11-14,1.6945853937968884
2024-11-15,1.6800358174879106
2024-11-18,1.6736181154445124
2024-11-19,1.6755259348339915
2024-11-20,1.6754744320881205
2024-11-21,1.6765471953917634
2024-11-22,1.6703917447404388
2024-11-25,1.6703719390035405
2024-11-26,1.6695304920255662
2024-11-27,1.6697064128216832
2024-11-28,1.6696604279631608
2024-11-29,1.6694888551778642
2024-12-02,1.6694006413424942
2024-12-03,1.6697492987725218
2024-12-04,1.6698342360826206
2024-12-05,1.6691862560332436
2024-12-06,1.6696784124213768
2024-12-09,1.67029027966479
2024-12-10,1.6700893213723944
2024-12-11,1.6698627441224672
2024-12-12,1.6713980666182267
2024-12-13,1.6654122337661588
2024-12-16,1.6679391456439574
2024-12-17,1.6679327523911507
2024-12-18,1.6698932285532204
2024-12-19,1.6677657756428552
2024-12-20,1.665490406319348
2024-12-23,1.6692689334826032
2024-12-24,1.6732212386749932
2024-12-25,1.6739163752939599
2024-12-26,1.6731306547098923
2024-12-27,1.672216059368979
2024-12-30,1.6742000836952413
2024-12-31,1.670466747723735
2025-01-02,1.6628700174840534
2025-01-03,1.6614028152898195
2025-01-06,1.6624932703028823
2025-01-07,1.6629216225323247
2025-01-08,1.6656902281322534
2025-01-09,1.665906429137479
2025-01-10,1.6638790341102065
2025-01-13,1.6611324920523698
2025-01-14,1.662366466545595
2025-01-15,1.6619044394910734
2025-01-16,1.6636565690401133
2025-01-17,1.6632421726052535
2025-01-20,1.662558351437054
2025-01-21,1.6626016329209288
2025-01-22,1.6612094851694066
2025-01-23,1.661738785035097
2025-01-24,1.6625831697258615
2025-01-27,1.6635247685458174
2025-02-05,1.661907396456526
2025-02-06,1.6629744934916404
2025-02-07,1.666767031141556
2025-02-10,1.668631362398731
2025-02-11,1.6678138151699877
2025-02-12,1.6778610080142295
2025-02-13,1.6748115902028318
2025-02-14,1.6820648598936736
2025-02-17,1.6806571380784276
2025-02-18,1.6777295030049277
2025-02-19,1.686999329450957
2025-02-20,1.6846572037430934
2025-02-21,1.694048807212128
2025-02-24,1.6908290111971325
2025-02-25,1.6820551548982097
2025-02-26,1.6875756983055719
2025-02-27,1.6914422965815017
2025-02-28,1.6757578960066093
2025-03-03,1.6754793726149482
2025-03-04,1.673150621000852
2025-03-05,1.6756730754873126
2025-03-06,1.680734885930476
2025-03-07,1.6815663515651245
2025-03-10,1.6797147158588306
2025-03-11,1.6836421093594462
2025-03-12,1.6794595703656074
2025-03-13,1.6788717952347911
2025-03-14,1.6926149713897056
2025-03-17,1.6940973729293516
2025-03-18,1.6928516635135107
2025-03-19,1.69534190011853
2025-03-20,1.6868100072920336
2025-03-21,1.6755209206522779
2025-03-24,1.6795245171994244
2025-03-25,1.679001488114135
2025-03-26,1.6789609070844098
2025-03-27,1.680120766128203
2025-03-28,1.6771730992344551
2025-03-31,1.6745857363543728
2025-04-01,1.6740337073225995
2025-04-02,1.6720388638299764
2025-04-03,1.6730198508379348
2025-04-07,1.6633804791713667
2025-04-08,1.6682588966553014
2025-04-09,1.6692921395008304
2025-04-10,1.6706888272931781
2025-04-11,1.6663581653925472
2025-04-14,1.6663577671332217
2025-04-15,1.6641331977497937
2025-04-16,1.6683273526548512
2025-04-17,1.6682352549713833
2025-04-18,1.6664389390731191
2025-04-21,1.6647223665577764
2025-04-22,1.6644456604866333
2025-04-23,1.6605450081826203
2025-04-24,1.6616001174690107
2025-04-25,1.6600901507448904
2025-04-28,1.6586342012906485
2025-04-29,1.6580174819248532
2025-04-30,1.6561300401445453
2025-05-06,1.6555368396174979
2025-05-07,1.6548944411673066
2025-05-08,1.65380836954982
2025-05-09,1.6547483178499784
2025-05-12,1.6631022781254747
2025-05-13,1.6648718738385395
2025-05-14,1.672044954073241
2025-05-15,1.6632249792982583
2025-05-16,1.6586075035535568
2025-05-19,1.6552297519960824
2025-05-20,1.6614917226201535
2025-05-21,1.6656393168879697
2025-05-22,1.6659650660594012
2025-05-23,1.6578646292488435
2025-05-26,1.6506556087595663
2025-05-27,1.6461871851814789
2025-05-28,1.6488149362390738
2025-05-29,1.647152797672896
2025-05-30,1.6452413955251535
2025-06-03,1.648162911716221
2025-06-04,1.6477027072916044
2025-06-05,1.6458684650455755
2025-06-06,1.6451055219531239
2025-06-09,1.6494414129685122
2025-06-10,1.649250685713551
2025-06-11,1.65253951717782
2025-06-12,1.654035050276991
2025-06-13,1.652079113996201
2025-06-16,1.6514049040784617
2025-06-17,1.650277524942629
2025-06-18,1.6486074863823652
2025-06-19,1.6452690457623822
2025-06-20,1.6468057947008452
2025-06-23,1.6475584875789768
2025-06-24,1.6499178275182553
2025-06-25,1.6540356486231287
2025-06-26,1.6512054276910988
2025-06-27,1.6483488079133792
2025-06-30,1.649487719704143
2025-07-01,1.6490453807137333
2025-07-02,1.6549116283080871
2025-07-03,1.6587666593116006
2025-07-04,1.6616393524521786
2025-07-07,1.6581585288300111
2025-07-08,1.6682631228851565
2025-07-09,1.6655507880909037
2025-07-10,1.672515673135627
2025-07-11,1.67197300818843
2025-07-14,1.671389932770853
2025-07-15,1.6695224523046976
2025-07-16,1.667613323184947
2025-07-17,1.674281625143491
2025-07-18,1.6779480593242695
2025-07-21,1.6854767904016354
2025-07-22,1.7036332763495232
2025-07-23,1.6993109326332874
2025-07-24,1.7098591053133592
2025-07-25,1.6958189020033518
2025-07-28,1.6932584774458916
2025-07-29,1.6941758952876136
2025-07-30,1.6975368918013694
2025-07-31,1.6722870171350837
2025-08-01,1.6682290537294384
2025-08-04,1.6667796113129543
2025-08-05,1.668940576264539
2025-08-06,1.6683078664892734
2025-08-07,1.6672938146516696
2025-08-08,1.6665863268363166
2025-08-11,1.6676984501462164
2025-08-12,1.6708549393433898
2025-08-13,1.6756721650720248
2025-08-14,1.6736020173831077
2025-08-15,1.6827078136452358
2025-08-18,1.6881875595174392
2025-08-19,1.678864863006806
2025-08-20,1.68562311113544
2025-08-21,1.6899875535462354
2025-08-22,1.6989077606601735
2025-08-25,1.7120604773264096
2025-08-26,1.7201701604857857
2025-08-27,1.6990972666992816
2025-08-28,1.7050939381005665
2025-08-29,1.7116613279056851
2025-09-01,1.7151623073964832
2025-09-02,1.7079483254755445
2025-09-03,1.7000133440629968
2025-09-04,1.6897893386545682
2025-09-05,1.7108086736208648
2025-09-08,1.718207872797742
2025-09-09,1.7137977413150516
2025-09-10,1.7074741027536704
2025-09-11,1.7170034734765027
2025-09-12,1.7122675722442091
2025-09-15,1.7164710125292175
2025-09-16,1.7146826128134813
2025-09-17,1.7178839551403446
2025-09-18,1.7097067626925984
2025-09-19,1.7116526276849686
2025-09-22,1.714848217609508
2025-09-23,1.7163982365516337
2025-09-24,1.7224749211530723
2025-09-25,1.7269427863191362
2025-09-26,1.7218392185289584
2025-09-29,1.7268786836121113
2025-09-30,1.7314058012631088
2025-10-09,1.7382229820445354
2025-10-10,1.7244866272109174
2025-10-13,1.7207071722013312
2025-10-14,1.7175993748931118
2025-10-15,1.7220709854568832
2025-10-16,1.7238042002371872
2025-10-17,1.7170655570527775
2025-10-20,1.7135117418405925
2025-10-21,1.715305918805992
2025-10-22,1.7150804459314934
2025-10-23,1.716506224677316
2025-10-24,1.7150683635042243
2025-10-27,1.7186104310912438
2025-10-28,1.7137506333070787
2025-10-29,1.721349972430873
2025-10-30,1.7240656558515743
2025-10-31,1.718818466051245
2025-11-03,1.7215257922010287
2025-11-04,1.7170588960015833
2025-11-05,1.719049908986172
2025-11-06,1.7193437865416747
2025-11-07,1.7246437784742816
2025-11-10,1.7345868261980004
2025-11-11,1.7350768008332274
2025-11-12,1.731465259378851
2025-11-13,1.735212250896687
2025-11-14,1.7317729440748766
2025-11-17,1.72591773772666
2025-11-18,1.7216099559509055
2025-11-19,1.7238619366310652
2025-11-20,1.717827659681146
2025-11-21,1.7141402932014655
2025-11-24,1.7113155784792702
2025-11-25,1.7118384863868836
2025-11-26,1.711535335248635
2025-11-27,1.7116274538528922
2025-11-28,1.7119044090603184
2025-12-01,1.7121181874758207
2025-12-02,1.7136018444125434
2025-12-03,1.7135944220340429
2025-12-04,1.7129520074048554
2025-12-05,1.7129895955228969
2025-12-08,1.7129516161268408
2025-12-09,1.7093651721872487
2025-12-10,1.7084090523773339
2025-12-11,1.7074534872810028
2025-12-12,1.7093908591673714
2025-12-15,1.709537790871917
2025-12-16,1.7077347778656493
2025-12-17,1.7099094989498531
2025-12-18,1.7088126678326496
2025-12-19,1.7107123240830948
2025-12-22,1.7117555631955412
2025-12-23,1.709801528541062
2025-12-24,1.710305414659115
2025-12-25,1.7104863601033116
2025-12-26,1.7157239039953758
2025-12-29,1.7122624513444293
2025-12-30,1.7099455727498523
2025-12-31,1.710856087585153
2026-01-05,1.713263069026065
2026-01-06,1.7235857972716602
2026-01-07,1.7163811987091961
2026-01-08,1.7103210701963854
2026-01-09,1.7142629905873565
2026-01-12,1.7181487827956081
2026-01-13,1.7111619463950372
2026-01-14,1.7087849700154663
2026-01-15,1.7063557920843815
2026-01-16,1.701853014632521
2026-01-19,1.6982336669609899
2026-01-20,1.702021468559786
2026-01-21,1.703167194471244
2026-01-22,1.7027326292646663
2026-01-23,1.7017385983634528
2026-01-26,1.6990898420856162
2026-01-27,1.698146441891202
2026-01-28,1.7007183243596011
2026-01-29,1.7035077350820622
2026-01-30,1.6949916143451857
2026-02-02,1.6907295663656412
2026-02-03,1.6935433342199513
2026-02-04,1.6984090235541616
2026-02-05,1.69936924802026
2026-02-06,1.6970881355564882
2026-02-09,1.6973768189968825
2026-02-10,1.6955451669557289
2026-02-11,1.6962299282122406
2026-02-12,1.6934269437058085
2026-02-13,1.6874369949285304
2026-02-24,1.6860226463126762
2026-02-25,1.6880692296415591
2026-02-26,1.6819463881618881
2026-02-27,1.681533288554191
2026-03-02,1.685716741140569
2026-03-03,1.6874390154006256
2026-03-04,1.686508753273288
2026-03-05,1.6840787159564057
2026-03-06,1.6837233686712736
2026-03-09,1.6865767532372689
2026-03-10,1.682537050127795
2026-03-11,1.685493335812156
2026-03-12,1.6872730477271474
2026-03-13,1.6862045714751726
2026-03-16,1.6891513675973457
2026-03-17,1.6882080190595412
2026-03-18,1.6863597305026607
2026-03-19,1.6868376546620456
2026-03-20,1.6884973448753824
2026-03-23,1.680664957409065
2026-03-24,1.6791974722267051
2026-03-25,1.6788773146432892
2026-03-26,1.6779830623671657
2026-03-27,1.6805223270882041
2026-03-30,1.6800365594713738
2026-03-31,1.6787588514922034
2026-04-01,1.6784652589582552
2026-04-02,1.677431139171111
2026-04-03,1.6741076149487122
2026-04-07,1.6735068466868939
2026-04-08,1.674345380591695
2026-04-09,1.6760046418568515
2026-04-10,1.6782660012979151
2026-04-13,1.676903465019508
2026-04-14,1.6794975629143076
2026-04-15,1.680611504823451
2026-04-16,1.684072580348566
2026-04-17,1.6802033967824037
2026-04-20,1.6854414808018663
2026-04-21,1.686637666020395
2026-04-22,1.6870495856835805
2026-04-23,1.6860713144250805
2026-04-24,1.6839368945737818
2026-04-27,1.6860690730405672
2026-04-28,1.684395519163104
2026-04-29,1.6862257045530264
2026-04-30,1.6849924277549706
2026-05-06,1.6900257456020635
2026-05-07,1.6889414936418148
2026-05-08,1.687242298916816
2026-05-11,1.6956047701120962
2026-05-12,1.6923735550594161
2026-05-13,1.6925762852452142
2026-05-14,1.6807633087542677
2026-05-15,1.6786803103417016
2026-05-18,1.673861822787468
2026-05-19,1.674314743804996
2026-05-20,1.672169034196397
2026-05-21,1.6710198869823563
2026-05-22,1.671157400137841
2026-05-25,1.6728486949925416
2026-05-26,1.6717073148286745
2026-05-27,1.6712546557768562
2026-05-28,1.6699937442506212
2026-05-29,1.666942739558006
2026-06-01,1.6668302592809379
2026-06-02,1.6668098552561315
2026-06-03,1.6666699949266817
2026-06-04,1.6659406809349422
2026-06-05,1.666387265735076
2026-06-08,1.6674203633243405
2026-06-09,1.6665172383408788
2026-06-10,1.6672174944885323
2026-06-11,1.667527252998616
2026-06-12,1.667715820360348
2026-06-15,1.6650321864844342
2026-06-16,1.6639816547445108
2026-06-17,1.6632916564484395
2026-06-18,1.6597424778416388
2026-06-22,1.6624975278234913
2026-06-23,1.6604236644007326
2026-06-24,1.661281800843341
2026-06-25,1.6651097274340565
2026-06-26,1.660253867135909
2026-06-29,1.6609143983349508
2026-06-30,1.6623916954211075
2026-07-01,1.6667845695106054
2026-07-02,1.6634623723991895
2026-07-03,1.666140792140062
2026-07-06,1.6695002108124173
2026-07-07,1.6637340966750254
2026-07-08,1.6603244982628516
2026-07-09,1.6645859326460242
2026-07-10,1.6628129984722222
2026-07-13,1.6612697414995554
2026-07-14,1.6626057302710524
2026-07-15,1.6718980141703523
2026-07-16,1.6719119693022564
2026-07-17,1.6628983828362247
2026-07-20,1.6757142758081438
2026-07-21,1.6681234457689582
2026-07-22,1.6780201000382202
2026-07-23,1.6756521522000103
2026-07-24,1.6647003717891775
2026-07-27,1.6638822433499658
2026-07-28,1.6738336782700285
2026-07-29,1.683562487634339
2026-07-30,1.705707501088313
2026-07-31,1.698340214653253
2026-08-03,1.6937890477030537
2026-08-04,1.6731125444150448
2026-08-05,1.6713255273292131
2026-08-06,1.6641505242487964
2026-08-07,1.6653670543994312
2026-08-10,1.6710804011095308
2026-08-11,1.6613034730834404
2026-08-12,1.6658361135390964
2026-08-13,1.6617958151041448
2026-08-14,1.6575988219285491
2026-08-17,1.656384835678683
2026-08-18,1.6560210957542119
2026-08-19,1.6530602647283377
2026-08-20,1.6544711465605089
2026-08-21,1.653303422475893
2026-08-24,1.6533216749088697
2026-08-25,1.6526207272496303
2026-08-26,1.653439411629864
2026-08-27,1.6535307063023543
2026-08-28,1.6549898813357748
2026-08-31,1.655261258780073
2026-09-01,1.6570262955900044
2026-09-02,1.6531345587299682
2026-09-03,1.654091004190342
2026-09-04,1.6579685509983895
2026-09-07,1.651593836656952
2026-09-08,1.650965289041705
2026-09-09,1.650707785845071
2026-09-10,1.6500326232564264
2026-09-11,1.6479282218831675
2026-09-14,1.648640355313833
2026-09-15,1.6458989194160158
2026-09-16,1.6444839976196644
2026-09-17,1.6442990175782755
2026-09-18,1.6440161026935511
2026-09-21,1.6455789862177468
2026-09-22,1.6456118521345737
2026-09-23,1.6453561203386902
2026-09-24,1.6451825565628528
